9481,98911
9491,98925
9501,98943
9511,98959
9522,98964
9532,98976
9542,98975
9552,98963
9562,98928
9572,98865
9582,98782
9592,98668
9602,98582
9612,98516
9622,98482
9632,98471
9643,98469
9653,98477
9663,98494
9673,98515
9684,98533
9694,98553
9704,98574
9714,98586
9724,98602
9734,98611
9744,98613
9754,98616
9765,98630
9775,98639
9785,98653
9795,98667
9805,98677
9815,98690
9825,98696
9835,98700
9845,98708
9855,98703
9865,98699
9875,98698
9885,98694
9896,98702
9906,98715
9917,98726
9927,98741
9937,98756
9947,98769
9957,98785
9967,98810
9977,98836
9987,98861
9997,98884
10007,98904
10018,98923
10028,98934
10038,98948
10048,98958
10058,98973
10068,98987
10078,98998
10088,99011
10098,99011
10108,99020
10118,99022
10128,99020
10139,99015
10150,99011
10160,98990
10170,98938
10180,98862
10190,98769
10200,98681
10210,98631
10220,98590
10230,98575
10240,98571
10250,98586
10261,98596
10271,98614
10281,98639
10291,98656
10301,98677
10311,98694
10321,98706
10331,98716
10341,98731
10351,98743
10361,98765
10373,98785
10383,98812
10393,98837
10403,98863
10413,98882
10423,98899
10433,98913
10443,98926
10453,98931
10463,98940
10473,98945
10483,98949
10493,98947
10504,98954
10514,98963
10524,98973
10534,98984
10544,99000
10554,99020
10564,99039
10574,99058
10584,99071
10594,99086
10605,99097
10615,99109
10626,99127
10636,99135
10646,99151
10656,99160
10666,99176
10676,99181
10686,99186
10696,99192
10706,99198
10716,99202
10726,99208
10736,99212
10747,99206
10757,99193
10767,99158
10777,99098
10787,99009
10797,98907
10807,98824
10817,98763
10828,98719
10838,98699
10848,98693
10859,98696
10869,98709
10879,98725
10889,98740
10899,98752
10909,98765
10919,98775
10929,98787
10939,98793
10949,98801
10959,98812
10969,98822
10979,98830
10989,98837
11000,98839
11010,98841
11020,98840
11030,98832
11040,98831
11050,98816
11061,98805
11071,98796
11081,98791
11091,98790
11101,98793
11111,98796
11121,98799
11132,98807
11142,98809
11152,98819
11162,98823
11172,98834
11182,98840
11192,98849
11202,98859
11212,98870
11222,98881
11232,98888
11243,98899
11253,98901
11263,98904
11273,98915
11284,98919
11294,98926
11304,98937
11314,98939
11324,98945
11334,98939
11344,98923
11354,98892
11365,98842
11375,98782
11385,98721
11395,98667
11405,98628
11415,98596
11425,98581
11435,98574
11445,98572
11455,98578
11465,98589
11475,98593
11486,98610
11496,98613
11506,98624
11517,98634
11527,98632
11537,98630
11547,98631
11557,98640
11567,98647
11577,98653
11587,98667
11597,98671
11608,98673
11618,98674
11628,98676
11638,98673
11648,98673
11658,98674
11668,98669
11678,98664
11688,98666
11698,98671
11708,98673
11718,98688
11729,98691
11740,98697
11750,98700
11760,98711
11770,98718
11780,98730
11790,98743
11800,98753
11810,98764
11820,98772
11830,98785
11840,98795
11851,98808
11861,98819
11871,98830
11881,98838
11891,98848
11901,98849
11911,98853
11921,98855
11931,98845
11941,98819
11951,98771
11962,98712
11973,98638
11983,98578
11993,98529
12003,98495
12013,98471
12023,98461
12033,98462
12043,98458
12053,98469
12063,98473
12073,98481
12083,98493
12094,98500
12104,98512
12114,98513
12124,98518
12134,98520
12144,98523
12154,98525
12164,98535
12174,98543
12184,98551
12195,98553
12206,98551
12216,98544
12226,98545
12236,98539
12246,98531
12256,98529
12266,98523
12276,98525
12286,98526
12296,98532
12306,98540
12316,98541
12327,98548
12337,98561
12347,98569
12357,98576
12367,98592
12377,98602
12387,98622
12397,98627
12407,98640
12417,98646
12428,98656
12438,98671
12449,98683
12459,98689
12469,98706
12479,98712
12489,98723
12499,98733
12509,98731
12519,98742
12529,98731
12539,98711
12549,98678
12560,98631
12570,98581
12580,98525
12590,98484
12600,98447
12610,98421
12620,98399
12630,98386
12640,98375
12650,98375
12661,98376
12671,98382
12682,98384
12692,98386
12702,98396
12712,98396
12722,98395
12732,98393
12742,98397
12752,98402
12762,98408
12772,98417
12782,98429
12792,98435
12803,98442
12813,98442
12823,98439
12833,98429
12843,98428
12853,98428
12863,98425
12873,98430
12884,98433
12894,98439
12905,98437
12915,98437
12925,98442
12935,98445
12945,98454
12955,98466
12965,98473
12975,98482
12985,98491
12995,98493
13005,98499
13015,98505
13025,98513
13036,98520
13046,98534
13056,98543
13066,98560
13076,98572
13086,98581
13096,98587
13106,98594
13117,98595
13127,98595
13138,98593
13148,98580
13158,98559
13168,98515
13178,98471
13188,98426
13198,98380
13208,98352
13218,98326
13228,98311
13238,98304
13248,98298
13259,98303
13269,98314
13279,98321
13289,98332
13299,98346
13309,98353
13319,98365
13329,98369
13339,98375
13350,98375
13360,98385
13370,98391
13381,98400
13391,98407
13401,98418
13411,98418
13421,98423
13431,98429
13441,98423
13451,98422
13461,98421
13471,98418
13481,98417
13492,98418
13502,98423
13512,98423
13522,98431
13532,98445
13542,98448
13552,98459
13562,98471
13572,98477
13583,98484
13593,98500
13603,98512
13614,98522
13624,98535
13634,98544
13644,98562
13654,98571
13664,98578
13674,98587
13684,98594
13694,98596
13704,98607
13714,98610
13725,98622
13735,98627
13745,98627
13755,98617
13765,98580
13775,98535
13785,98484
13795,98430
13806,98387
13816,98349
13826,98329
13836,98317
13847,98305
13857,98309
13867,98315
13877,98321
13887,98336
13897,98349
13907,98358
13917,98370
13927,98371
13937,98386
13947,98387
13957,98393
13968,98404
13978,98415
13988,98430
13998,98439
14008,98444
14018,98444
14028,98441
14039,98442
14049,98435
14059,98435
14069,98428
14080,98432
14090,98432
14100,98435
14110,98443
14120,98446
14130,98451
14140,98463
14150,98466
14160,98472
14170,98476
14180,98489
14190,98501
14200,98513
14211,98518
14221,98529
14231,98541
14241,98552
14251,98565
14261,98578
14272,98585
14282,98597
14292,98607
14302,98614
14312,98623
14322,98633
14333,98642
14343,98651
14353,98658
14363,98650
14373,98624
14383,98571
14393,98511
14403,98444
14413,98396
14423,98357
14433,98340
14443,98314
14454,98309
14464,98308
14474,98314
14484,98322
14494,98333
14505,98346
14515,98355
14525,98363
14535,98368
14545,98373
14555,98384
14565,98390
14575,98398
14586,98408
14596,98417
14606,98430
14616,98431
14626,98429
14636,98420
14646,98414
14656,98404
14666,98404
14676,98392
14686,98391
14696,98396
14707,98397
14717,98401
14727,98405
14738,98413
14748,98418
14758,98426
14768,98437
14778,98444
14788,98456
14798,98475
14808,98486
14818,98488
14828,98497
14839,98497
14849,98494
14859,98501
14869,98507
14879,98512
14889,98522
14899,98527
14909,98530
14919,98541
14929,98543
14939,98543
14949,98541
14960,98535
14971,98522
14981,98482
14991,98432
15001,98381
15011,98335
15021,98285
15031,98249
15041,98229
15051,98210
15061,98209
15071,98215
15081,98222
15092,98226
15102,98236
15112,98246
15122,98257
15132,98262
15142,98268
15152,98269
15162,98277
15172,98280
15182,98285
15193,98291
15203,98294
15213,98299
15223,98308
15234,98305
15244,98296
15254,98290
15264,98285
15274,98274
15284,98270
15294,98262
15304,98258
15314,98259
15324,98260
15334,98261
15345,98268
15355,98277
15365,98278
15375,98285
15385,98290
15395,98293
15405,98302
15415,98311
15426,98316
15436,98322
15446,98332
15456,98331
15467,98338
15477,98345
15487,98343
15497,98350
15507,98364
15517,98370
15527,98369
15537,98374
15547,98371
15557,98359
15567,98327
15577,98283
15587,98240
15598,98194
15608,98147
15618,98111
15628,98073
15638,98051
15649,98027
15659,98020
15669,98025
15679,98029
15689,98034
15699,98038
15709,98042
15719,98048
15729,98057
15740,98063
15750,98064
15760,98068
15770,98073
15780,98077
15790,98084
15800,98089
15810,98093
15820,98102
15830,98101
15840,98107
15851,98100
15861,98099
15871,98091
15882,98081
15892,98082
15902,98080
15912,98091
15922,98099
15932,98111
15942,98124
15952,98130
15962,98134
15973,98140
15983,98146
15993,98159
16003,98172
16013,98175
16023,98184
16033,98191
16043,98200
16053,98204
16063,98218
16073,98226
16083,98232
16094,98239
16104,98243
16115,98250
16125,98259
16135,98260
16145,98261
16155,98253
16165,98225
16175,98185
16185,98137
16195,98085
16205,98038
16215,97994
16226,97964
16236,97941
16246,97920
16256,97918
16266,97918
16276,97919
16286,97927
16296,97938
16306,97950
16316,97956
16326,97962
16336,97970
16347,97967
16358,97974
16368,97977
16378,97981
16388,97990
16398,97998
16408,98002
16418,98012
16428,98011
16438,98011
16448,98010
16458,98011
16468,98012
16479,98015
16489,98010
16499,98012
16509,98015
16519,98015
16529,98023
16539,98029
16549,98035
16559,98045
16569,98058
16579,98067
16591,98074
16601,98085
16611,98099
16621,98107
16631,98117
16641,98127
16651,98131
16661,98143
16671,98156
16681,98171
16691,98178
16701,98188
16711,98198
16722,98205
16732,98207
16742,98210
16752,98208
16762,98183
16772,98143
16782,98088
16792,98031
16802,97978
16813,97929
16823,97889
16833,97860
16843,97835
16854,97830
16864,97824
16874,97825
16884,97823
16894,97830
16904,97834
16914,97837
16924,97844
16934,97844
16944,97849
16954,97851
16965,97858
16975,97864
16985,97868
16995,97869
17005,97877
17015,97884
17025,97887
17035,97887
17046,97886
17056,97882
17066,97883
17076,97876
17087,97881
17097,97881
17107,97885
17117,97883
17127,97892
17137,97899
17147,97913
17157,97922
17167,97927
17177,97932
17187,97943
17197,97950
17207,97953
17218,97962
17228,97980
17238,97990
17248,98006
17258,98018
17269,98030
17279,98040
17289,98050
17299,98062
17309,98075
17319,98090
17329,98103
17340,98115
17350,98118
17360,98120
17370,98105
17380,98077
17390,98023
17400,97965
17410,97912
17420,97860
17430,97817
17440,97786
17450,97763
17460,97749
17471,97750
17481,97756
17491,97759
17501,97770
17512,97786
17522,97796
17532,97810
17542,97818
17552,97834
17562,97832
17572,97838
17582,97849
17593,97868
17603,97883
17613,97888
17623,97895
17633,97902
17643,97903
17653,97901
17663,97895
17673,97893
17683,97888
17693,97889
17703,97886
17714,97894
17724,97902
17735,97904
17745,97904
17755,97913
17765,97924
17775,97933
17785,97944
17795,97959
17805,97968
17815,97974
17825,97986
17836,97999
17846,98010
17856,98023
17866,98036
17876,98047
17886,98064
17896,98074
17906,98081
17916,98092
17926,98106
17936,98112
17946,98128
17956,98136
17967,98139
17978,98144
17988,98128
17998,98095
18008,98035
18018,97971
18028,97911
18038,97859
18048,97819
18058,97788
18068,97774
18078,97765
18089,97763
18099,97769
18109,97779
18119,97796
18129,97808
18139,97827
18149,97838
18159,97853
18169,97860
18179,97870
18189,97879
18201,97883
18211,97894
18221,97912
18231,97922
18241,97931
18251,97938
18261,97936
18271,97936
18281,97934
18291,97933
18301,97926
18311,97917
18322,97917
18332,97920
18342,97923
18352,97933
18362,97935
18372,97947
18382,97953
18392,97967
18402,97984
18412,97996
18422,98013
18433,98027
18444,98036
18454,98054
18464,98075
18474,98084
18484,98099
18494,98113
18504,98130
18514,98144
18524,98149
18534,98160
18544,98169
18554,98176
18564,98190
18575,98194
18585,98193
18595,98188
18605,98150
18615,98097
18625,98020
18635,97946
18645,97884
18655,97839
18667,97800
18677,97774
18687,97765
18697,97761
18707,97772
18717,97779
18727,97800
18737,97818
18747,97832
18757,97849
18767,97866
18777,97877
18787,97882
18798,97894
18808,97901
18818,97918
18828,97932
18838,97946
18848,97955
18858,97953
18868,97954
18878,97952
18888,97943
18899,97932
18909,97928
18919,97929
18930,97934
18940,97938
18950,97946
18960,97955
18970,97965
18980,97975
18990,97979
19000,97993
19010,98007
19020,98014
19030,98028
19040,98044
19051,98062
19061,98078
19071,98098
19081,98117
19091,98134
19101,98146
19111,98160
19121,98173
19132,98184
19142,98196
19152,98205
19162,98213
19173,98224
19183,98231
19193,98226
19203,98185
19213,98129
19223,98048
19233,97980
19243,97920
19253,97871
19263,97835
19273,97819
19284,97814
19294,97815
19304,97825
19314,97837
19324,97853
19334,97866
19344,97885
19354,97895
19365,97902
19375,97911
19385,97924
19395,97930
19405,97940
19416,97943
19426,97955
19436,97964
19446,97968
19456,97973
19466,97971
19476,97967
19486,97962
19496,97953
19506,97950
19516,97945
19527,97948
19537,97951
19547,97954
19557,97962
19567,97972
19577,97980
19587,97987
19598,97994
19608,98000
19618,98012
19628,98018
19639,98029
19648,98038
19659,98047
19669,98055
19679,98073
19689,98088
19699,98108
19709,98119
19719,98132
19729,98153
19739,98161
19749,98169
19759,98181
19770,98177
19780,98182
19790,98168
19800,98133
19810,98074
19820,98001
19831,97931
19841,97876
19851,97830
19861,97807
19871,97778
19881,97767
19891,97761
19901,97768
19912,97776
19922,97785
19932,97791
19942,97802
19952,97812
19962,97829
19972,97833
19982,97842
19992,97854
20002,97863
20012,97875
20023,97889
20033,97904
20043,97909
20054,97913
20064,97912
20074,97908
20084,97901
20094,97899
20104,97897
20114,97896
20124,97894
20134,97900
20144,97910
20155,97908
20165,97917
20175,97925
20185,97933
20195,97948
20205,97956
20215,97969
20225,97984
20235,97994
20245,98011
20255,98027
20265,98040
20276,98058
20287,98070
20297,98080
20307,98088
20317,98091
20327,98093
20337,98097
20347,98102
20357,98103
20367,98107
20377,98110
20387,98096
20397,98072
20408,98030
20418,97970
20428,97904
20438,97848
20448,97804
20458,97767
20468,97731
20478,97717
20488,97708
20498,97714
20508,97714
20519,97727
20530,97743
20540,97757
20550,97770
20560,97784
20570,97793
20580,97795
20590,97797
20600,97806
20610,97814
20620,97818
20630,97835
20640,97840
20651,97843
20661,97845
20671,97846
20681,97841
20691,97841
20701,97836
20711,97834
20721,97837
20731,97845
20741,97844
20752,97849
20763,97860
20773,97871
20783,97873
20793,97886
20803,97893
20813,97908
20823,97917
20833,97925
20843,97936
20853,97938
20863,97954
20873,97959
20883,97968
20894,97971
20904,97979
20914,97995
20924,97998
20934,98007
20944,98025
20954,98034
20964,98037
20975,98043
20985,98043
20995,98028
21006,98001
21016,97951
21026,97901
21036,97846
21046,97789
21056,97742
21066,97710
21076,97674
21086,97654
21096,97644
21106,97644
21116,97645
21126,97652
21137,97659
21147,97674
21157,97685
21167,97691
21177,97704
21187,97704
21197,97710
21207,97709
21218,97720
21228,97728
21238,97736
21249,97747
21259,97749
21269,97752
21279,97754
21289,97750
21299,97741
21309,97737
21319,97737
21329,97735
21339,97741
21349,97743
21359,97743
21369,97751
21380,97757
21390,97764
21400,97767
21410,97771
21420,97779
21430,97792
21441,97801
21451,97816
21461,97831
21471,97839
21481,97852
21491,97869
21502,97874
21512,97882
21522,97893
21532,97901
21542,97908
21552,97920
21562,97934
21572,97943
21582,97947
21592,97952
21602,97950
21612,97928
21623,97899
21633,97847
21643,97790
21653,97733
21663,97685
21674,97640
21684,97607
21694,97590
21704,97576
21714,97577
21724,97579
21734,97592
21745,97601
21755,97616
21765,97634
21775,97648
21785,97662
21795,97673
21805,97691
21815,97697
21825,97713
21835,97724
21845,97737
21856,97748
21866,97751
21876,97753
21886,97753
21896,97747
21906,97742
21917,97725
21927,97721
21937,97719
21947,97713
21957,97718
21968,97715
21978,97722
21988,97733
21998,97745
22008,97758
22018,97772
22028,97783
22038,97798
22048,97808
22058,97820
22068,97831
22078,97843
22089,97856
22099,97866
22109,97875
22119,97890
22129,97896
22140,97912
22150,97919
22160,97929
22170,97938
22180,97949
22190,97957
22200,97949
22211,97927
22221,97885
22231,97831
22241,97770
22251,97717
22261,97661
22271,97617
22281,97588
22291,97567
22301,97558
22311,97561
22321,97562
22331,97568
22342,97578
22352,97596
22362,97606
22372,97615
22383,97623
22393,97632
22403,97641
22413,97650
22423,97660
22433,97673
22443,97681
22453,97691
22463,97694
22474,97696
22484,97698
22494,97698
22504,97690
22514,97693
22524,97691
22534,97687
22544,97692
22554,97685
22564,97691
22574,97698
22584,97705
22595,97719
22606,97724
22616,97736
22626,97743
22636,97755
22646,97765
22656,97776
22666,97787
22676,97804
22686,97816
22696,97825
22706,97836
22716,97848
22727,97852
22737,97869
22747,97880
22757,97890
22767,97896
22777,97901
22787,97896
22797,97882
22807,97845
22817,97797
22827,97737
22838,97684
22848,97624
22859,97579
22869,97538
22879,97511
22889,97496
22899,97490
22909,97491
22919,97497
22929,97510
22939,97514
22949,97525
22959,97531
22969,97544
22979,97547
22990,97551
23000,97558
23010,97567
23020,97578
23030,97591
23040,97602
23050,97610
23060,97612
23071,97608
23081,97607
23091,97602
23101,97591
23111,97586
23122,97590
23132,97588
23142,97590
23152,97595
23162,97596
23172,97602
23182,97618
23192,97627
23202,97634
23212,97644
23222,97654
23233,97661
23243,97675
23253,97693
23263,97695
23273,97708
23283,97719
23293,97729
23304,97736
23314,97748
23324,97758
23334,97767
23344,97779
23355,97795
23365,97803
23375,97803
23385,97801
23395,97786
23405,97744
23415,97690
23425,97632
23435,97575
23445,97517
23455,97465
23465,97430
23475,97400
23485,97386
23496,97374
23506,97371
23516,97384
23526,97389
23537,97402
23547,97409
23557,97421
23567,97427
23577,97437
23587,97447
23597,97450
23607,97461
23618,97471
23628,97480
23638,97490
23648,97496
23658,97504
23668,97506
23678,97505
23688,97506
23698,97503
23708,97491
23718,97490
23728,97490
23738,97491
23749,97500
23759,97504
23770,97516
23780,97523
23790,97535
23800,97549
23810,97560
23820,97577
23830,97586
23840,97600
23850,97609
23860,97618
23871,97631
23881,97646
23891,97660
23901,97673
23911,97686
23921,97704
23931,97715
23941,97721
23951,97734
23961,97746
23971,97747
23981,97745
23992,97725
24003,97679
24013,97626
24023,97560
24033,97505
24043,97454
24053,97403
24063,97373
24073,97354
24083,97345
24093,97343
24103,97351
24113,97363
24124,97373
24134,97388
24144,97400
24154,97402
24164,97414
24174,97426
24184,97428
24194,97439
24204,97448
24214,97468
24224,97478
24236,97489
24246,97501
24256,97504
24266,97505
24276,97502
24286,97501
24296,97503
24306,97501
24316,97502
24326,97510
24336,97516
24346,97522
24357,97530
24367,97538
24377,97546
24387,97556
24397,97571
24407,97583
24417,97597
24427,97613
24437,97628
24447,97650
24457,97664
24469,97680
24479,97694
24489,97710
24499,97724
24509,97733
24519,97754
24529,97761
24539,97777
24549,97789
24559,97796
24569,97800
24579,97795
24589,97771
24600,97727
24610,97668
24620,97601
24630,97539
24640,97477
24650,97436
24660,97409
24670,97384
24680,97374
24690,97369
24700,97371
24711,97380
24721,97385
24732,97396
24742,97404
24752,97417
24762,97423
24772,97428
24782,97437
24792,97444
24802,97452
24812,97463
24822,97475
24832,97486
24843,97493
24853,97496
24863,97495
24873,97500
24883,97492
24893,97484
24903,97484
24913,97488
24923,97488
24933,97493
24944,97498
24954,97504
24965,97511
24975,97524
24985,97534
24995,97539
25005,97551
25015,97562
25025,97574
25035,97585
25045,97603
25055,97614
25065,97630
25075,97645
25085,97662
25096,97671
25106,97685
25116,97698
25126,97716
25136,97724
25146,97738
25156,97752
25166,97758
25177,97759
25187,97746
25197,97711
25208,97655
25218,97586
25228,97525
25238,97472
25248,97424
25258,97389
25268,97370
25278,97362
25288,97361
25298,97367
25308,97376
25318,97396
25329,97419
25339,97430
25349,97443
25359,97456
25369,97467
25379,97476
25389,97488
25399,97500
25410,97510
25420,97521
25430,97527
25440,97525
25451,97529
25461,97522
25471,97521
25481,97515
25491,97505
25501,97501
25511,97501
25521,97502
25531,97507
25541,97516
25551,97527
25561,97536
25572,97550
25582,97560
25592,97566
25602,97581
25612,97591
25622,97604
25632,97616
25642,97631
25653,97646
25663,97670
25673,97683
25683,97698
25694,97707
25704,97718
25714,97726
25724,97734
25734,97741
25744,97750
25754,97759
25764,97758
25774,97743
25784,97714
25794,97660
25804,97595
25814,97537
25825,97486
25835,97441
25845,97404
25855,97381
25865,97369
25875,97366
25886,97372
25896,97385
25906,97398
25916,97414
25926,97426
25936,97444
25947,97455
25957,97467
25967,97476
25977,97490
25987,97503
25997,97521
26007,97532
26017,97544
26027,97555
26037,97555
26047,97555
26058,97551
26068,97549
26078,97545
26088,97540
26098,97535
26108,97529
26119,97526
26129,97527
26139,97531
26149,97540
26159,97547
26169,97562
26180,97577
26190,97587
26200,97604
26210,97620
26220,97635
26230,97647
26240,97660
26250,97676
26260,97688
26270,97699
26280,97715
26290,97726
26301,97739
26311,97750
26321,97766
26331,97772
26342,97777
26352,97774
26362,97760
26372,97714
26382,97655
26392,97585
26403,97519
26413,97462
26423,97418
26433,97379
26443,97354
26453,97335
26463,97332
26473,97338
26483,97350
26493,97361
26503,97376
26513,97390
26524,97398
26534,97406
26544,97414
26554,97426
26564,97438
26575,97451
26585,97460
26595,97474
26605,97485
26615,97494
26625,97498
26635,97502
26646,97502
26656,97499
26666,97497
26676,97500
26686,97499
26696,97498
26706,97502
26716,97510
26726,97517
26736,97529
26746,97538
26756,97550
26767,97562
26777,97575
26787,97591
26798,97603
26808,97621
26818,97633
26828,97654
26838,97664
26848,97685
26858,97703
26868,97721
26878,97739
26888,97757
26899,97771
26909,97793
26919,97804
26929,97815
26939,97818
26949,97802
26959,97773
26969,97709
26979,97632
26989,97560
27000,97494
27010,97439
27020,97400
27030,97366
27041,97358
27051,97354
27061,97358
27071,97369
27081,97384
27091,97402
27101,97412
27111,97431
27122,97443
27132,97455
27142,97459
27152,97466
27162,97470
27172,97477
27182,97486
27192,97496
27202,97505
27212,97512
27223,97517
27233,97523
27243,97524
27253,97536
27264,97533
27274,97540
27284,97544
27294,97553
27304,97567
27314,97584
27324,97604
27334,97628
27345,97651
27355,97681
27365,97712
27375,97749
27385,97783
27395,97825
27405,97866
27415,97913
27425,97959
27435,98004
27445,98051
27456,98084
27466,98119
27476,98162
27486,98187
27496,98228
27507,98264
27517,98299
27527,98318
27537,98344
27547,98356
27558,98341
27567,98291
27578,98194
27588,98058
27598,97924
27608,97817
27618,97752
27628,97713
27638,97698
27648,97696
27658,97703
27668,97720
27679,97741
27689,97761
27699,97787
27709,97805
27719,97826
27730,97844
27740,97856
27750,97863
27760,97880
27770,97898
27780,97919
27790,97939
27801,97957
27811,97966
27821,97981
27831,97980
27841,97972
27851,97968
27861,97956
27871,97952
27881,97945
27892,97944
27901,97949
27912,97953
27922,97963
27932,97972
27942,97990
27952,98015
27963,98035
27973,98058
27983,98080
27993,98094
28003,98116
28014,98132
28024,98150
28034,98168
28044,98188
28054,98210
28064,98230
28074,98247
28084,98265
28094,98276
28104,98290
28114,98301
28124,98310
28134,98317
28145,98327
28155,98333
28165,98321
28175,98285
28185,98212
28195,98099
28206,97982
28216,97882
28226,97808
28236,97759
28246,97729
28257,97714
28267,97702
28277,97706
28287,97722
28297,97735
28307,97756
28317,97771
28327,97788
28337,97804
28347,97821
28357,97830
28368,97836
28378,97850
28388,97861
28398,97870
28408,97884
28418,97899
28429,97904
28439,97908
28449,97909
28459,97906
28469,97898
28479,97893
28489,97884
28500,97878
28510,97877
28520,97883
28530,97886
28540,97890
28550,97905
28560,97908
28570,97916
28580,97933
28590,97947
28600,97956
28610,97975
28621,97994
28631,98015
28641,98029
28651,98047
28661,98062
28672,98080
28682,98091
28692,98105
28702,98115
28712,98125
28722,98137
28732,98155
28743,98162
28753,98180
28763,98189
28773,98192
28783,98194
28793,98173
28803,98122
28813,98036
28823,97941
28833,97862
28844,97794
28853,97744
28864,97710
28874,97679
28884,97667
28895,97666
28905,97667
28915,97676
28925,97684
28935,97693
28945,97704
28955,97713
28965,97719
28976,97728
28986,97736
28996,97745
29006,97760
29016,97773
29026,97794
29036,97807
29046,97814
29056,97820
29066,97821
29076,97808
29087,97796
29097,97793
29107,97786
29117,97783
29128,97782
29138,97785
29148,97791
29158,97799
29168,97811
29178,97820
29188,97838
29198,97850
29208,97860
29218,97878
29229,97890
29239,97901
29249,97913
29259,97927
29269,97932
29279,97945
29289,97955
29299,97960
29309,97971
29319,97981
29329,97995
29340,98005
29350,98013
29361,98030
29371,98036
29381,98041
29391,98031
29401,98000
29411,97951
29421,97880
29431,97813
29441,97758
29451,97708
29462,97673
29472,97649
29482,97641
29492,97634
29502,97642
29512,97652
29522,97662
29532,97671
29542,97688
29552,97700
29562,97713
29573,97726
29583,97736
29594,97741
29604,97757
29614,97764
29624,97776
29634,97791
29644,97800
29654,97807
29664,97806
29674,97805
29685,97797
29695,97788
29705,97780
29715,97783
29725,97779
29735,97779
29745,97786
29755,97790
29765,97799
29775,97808
29785,97819
29796,97827
29806,97842
29817,97856
29827,97872
29837,97891
29847,97908
29857,97931
29867,97951
29877,97966
29887,97981
29897,97992
29907,98007
29918,98018
29928,98029
29938,98042
29948,98053
29958,98066
29968,98070
29978,98077
29988,98070
29998,98041
30008,97986
30019,97906
30028,97826
30039,97753
30050,97699
30060,97650
30070,97621
30080,97606
30090,97599
30100,97606
30110,97616
30120,97627
30130,97644
30140,97665
30150,97675
30161,97686
30171,97696
30181,97706
30191,97714
30201,97723
30211,97742
30221,97758
30231,97770
30241,97787
30251,97803
30261,97811
30273,97808
30283,97810
30293,97805
30303,97798
30313,97791
30323,97785
30333,97787
30343,97786
30353,97795
30363,97799
30373,97808
30384,97815
30394,97830
30404,97841
30414,97854
30424,97874
30434,97889
30444,97912
30454,97923
30464,97944
30474,97963
30484,97984
30495,98001
30506,98014
30516,98030
30526,98048
30536,98068
30546,98078
30556,98090
30566,98105
30576,98112
30586,98109
30596,98084
30607,98023
30617,97945
30627,97863
30637,97791
30647,97732
30657,97687
30667,97656
30677,97641
30687,97633
30697,97633
30707,97642
30718,97653
30729,97666
30739,97686
30749,97701
30759,97719
30769,97732
30779,97744
30789,97754
30799,97762
30809,97774
30819,97784
30829,97787
30840,97801
30850,97804
30860,97808
30870,97813
30880,97811
30890,97805
30900,97799
30910,97797
30920,97797
30930,97799
30940,97800
30950,97807
30962,97811
30972,97822
30982,97832
30992,97836
31002,97850
31012,97862
31023,97874
31032,97890
31042,97904
31053,97921
31063,97940
31073,97956
31083,97969
31093,97980
31103,97989
31113,98002
31123,98024
31133,98046
31143,98057
31153,98073
31163,98080
31174,98087
31185,98085
31195,98062
31205,98015
31215,97948
31225,97874
31235,97809
31245,97751
31255,97703
31265,97663
31275,97636
31286,97622
31296,97622
31306,97625
31316,97636
31326,97649
31336,97662
31346,97673
31356,97680
31366,97688
31376,97700
31386,97705
31397,97715
31407,97718
31417,97733
31428,97745
31438,97759
31448,97766
31458,97770
31468,97771
31478,97773
31488,97769
31498,97765
31509,97759
31519,97755
31529,97753
31539,97757
31549,97761
31559,97768
31569,97775
31579,97789
31589,97799
31599,97815
31609,97833
31620,97849
31630,97868
31640,97896
31651,97915
31661,97934
31671,97955
31681,97974
31691,97994
31701,98011
31711,98030
31722,98052
31732,98072
31742,98092
31752,98110
31762,98124
31772,98143
31782,98154
31792,98150
31802,98130
31812,98070
31822,97984
31832,97887
31843,97800
31853,97740
31863,97696
31873,97665
31884,97650
31894,97654
31904,97660
31914,97670
31924,97692
31934,97711
31944,97727
31954,97749
31965,97767
31975,97785
31985,97796
31995,97806
32005,97822
32015,97838
32025,97857
32035,97872
32045,97882
32055,97886
32065,97889
32075,97886
32086,97875
32096,97863
32107,97855
32117,97851
32127,97846
32137,97848
32147,97854
32157,97859
32167,97869
32177,97884
32187,97891
32197,97907
32208,97930
32218,97950
32228,97976
32238,97990
32248,98016
32258,98034
32268,98055
32278,98080
32288,98101
32298,98124
32308,98149
32319,98169
32329,98183
32340,98202
32350,98219
32360,98230
32370,98237
32380,98238
32390,98220
32400,98160
32410,98063
32420,97957
32431,97859
32440,97790
32451,97739
32461,97703
32471,97683
32481,97676
32491,97684
32501,97697
32511,97711
32521,97734
32531,97753
32541,97773
32551,97797
32562,97810
32573,97821
32583,97834
32593,97846
32603,97862
32613,97875
32623,97892
32633,97901
32643,97906
32653,97907
32663,97906
32673,97900
32684,97899
32694,97890
32704,97884
32714,97879
32724,97882
32734,97878
32744,97881
32754,97894
32764,97900
32774,97917
32784,97931
32795,97948
32806,97966
32816,97992
32826,98015
32836,98039
32846,98063
32856,98076
32866,98100
32876,98111
32886,98131
32896,98157
32906,98171
32916,98193
32927,98211
32937,98229
32947,98239
32957,98246
32967,98235
32977,98193
32987,98109
32997,98004
33007,97907
33017,97842
33028,97784
33038,97743
33049,97725
33059,97713
33069,97722
33079,97729
33089,97743
33099,97763
33109,97779
33119,97802
33129,97816
33139,97830
33149,97835
33159,97845
33170,97860
33180,97867
33190,97883
33200,97893
33210,97907
33220,97921
33230,97933
33240,97929
33251,97928
33261,97929
33271,97925
33281,97922
33292,97919
33302,97916
33312,97915
33322,97921
33332,97924
33342,97934
33352,97945
33362,97964
33372,97975
33382,97994
33392,98009
33402,98030
33412,98051
33423,98071
33433,98092
33443,98110
33453,98129
33463,98147
33473,98167
33484,98188
33494,98208
33504,98227
33514,98240
33524,98254
33535,98271
33545,98273
33555,98246
33565,98187
33575,98099
33585,97994
33595,97909
33605,97839
33615,97785
33625,97754
33635,97734
33645,97726
33656,97730
33666,97741
33676,97753
33686,97777
33696,97790
33706,97810
33717,97820
33727,97833
33737,97841
33747,97849
33757,97861
33768,97871
33778,97887
33788,97900
33798,97917
33808,97924
33818,97934
33828,97935
33838,97936
33848,97934
33858,97924
33868,97923
33878,97920
33889,97916
33899,97919
33909,97923
33919,97925
33929,97936
33939,97942
33950,97954
33960,97968
33970,97976
33980,97996
33990,98016
34000,98029
34011,98046
34021,98063
34031,98083
34041,98101
34051,98123
34061,98143
34071,98160
34081,98177
34091,98190
34101,98205
34111,98216
34121,98224
34131,98230
34142,98225
34152,98188
34162,98117
34173,98022
34183,97935
34193,97865
34203,97810
34213,97771
34223,97747
34233,97745
34243,97749
34253,97762
34264,97780
34274,97794
34284,97817
34294,97838
34304,97856
34314,97870
34324,97885
34334,97887
34344,97897
34354,97906
34364,97919
34375,97939
34384,97952
34395,97970
34406,97979
34416,97988
34426,97990
34436,97987
34446,97985
34456,97987
34466,97982
34476,97976
34486,97982
34496,97984
34507,97981
34517,97990
34527,98004
34537,98014
34547,98031
34557,98047
34567,98073
34577,98096
34587,98114
34597,98136
34607,98157
34617,98176
34628,98200
34639,98217
34649,98246
34659,98267
34669,98283
34679,98299
34689,98317
34699,98327
34709,98339
34719,98346
34729,98353
34740,98337
34750,98287
34760,98197
34770,98081
34780,97961
34790,97877
34800,97816
34810,97780
34820,97764
34830,97755
34840,97764
34850,97774
34862,97797
34872,97818
34882,97837
34892,97861
34902,97878
34912,97897
34922,97909
34932,97924
34942,97931
34952,97953
34962,97972
34972,97996
34983,98010
34993,98025
35003,98028
35013,98023
35023,98019
35033,98006
35043,97994
35053,97977
35063,97971
35073,97970
35083,97972
35095,97972
35105,97984
35115,97992
35125,98005
35135,98020
35145,98041
35155,98056
35165,98085
35175,98102
35185,98126
35195,98144
35206,98162
35216,98188
35226,98210
35236,98233
35246,98252
35256,98276
35266,98300
35276,98321
35286,98333
35296,98345
35306,98364
35317,98367
35327,98365
35338,98326
35348,98259
35358,98148
35368,98029
35378,97931
35388,97863
35398,97820
35408,97793
35418,97785
35428,97785
35439,97792
35449,97808
35459,97833
35469,97851
35479,97871
35489,97891
35499,97906
35509,97919
35519,97932
35529,97943
35539,97952
35549,97975
35560,97989
35570,98010
35581,98022
35591,98026
35601,98031
35611,98029
35621,98021
35631,98011
35641,98006
35651,97996
35661,98000
35671,97997
35681,98000
35691,98010
35702,98018
35712,98029
35722,98048
35732,98063
35742,98083
35752,98104
35762,98125
35772,98146
35782,98171
35793,98187
35803,98208
35813,98224
35824,98240
35834,98257
35844,98280
35854,98295
35864,98318
35874,98332
35884,98347
35894,98359
35904,98360
35914,98347
35924,98294
35934,98207
35945,98105
35955,98009
35965,97933
35975,97883
35985,97847
35995,97831
36005,97826
36016,97826
36026,97836
36036,97848
36046,97869
36056,97888
36067,97910
36077,97924
36087,97939
36097,97947
36107,97956
36117,97967
36127,97977
36137,97993
36147,98010
36157,98022
36167,98039
36178,98045
36188,98046
36198,98047
36208,98047
36218,98041
36228,98038
36238,98036
36249,98034
36259,98034
36269,98039
36279,98058
36289,98064
36300,98078
36310,98098
36320,98113
36330,98132
36340,98157
36350,98182
36360,98204
36370,98227
36380,98253
36390,98283
36400,98309
36411,98333
36421,98359
36431,98387
36441,98411
36451,98437
36461,98457
36472,98473
36482,98491
36492,98499
36502,98492
36512,98455
36522,98373
36533,98260
36543,98130
36553,98026
36563,97949
36573,97896
36583,97872
36593,97857
36603,97857
36613,97867
36623,97881
36633,97901
36643,97924
36654,97947
36664,97961
36674,97977
36684,97990
36694,97994
36705,98002
36715,98011
36725,98020
36735,98038
36745,98060
36755,98070
36765,98077
36776,98087
36786,98087
36796,98086
36806,98087
36816,98077
36826,98073
36836,98076
36846,98074
36856,98070
36866,98078
36876,98091
36887,98100
36897,98111
36907,98127
36917,98151
36928,98169
36938,98190
36948,98215
36958,98237
36968,98258
36978,98281
36988,98303
36999,98329
37009,98350
37019,98375
37029,98399
37039,98422
37049,98437
37059,98459
37069,98473
37079,98480
37089,98485
37099,98486
37109,98463
37120,98399
37130,98297
37140,98169
37150,98065
37161,97982
37171,97926
37181,97897
37191,97879
37201,97879
37211,97891
37222,97900
37231,97923
37242,97938
37252,97960
37262,97981
37272,97989
37282,98001
37292,98005
37302,98012
37312,98026
37322,98038
37332,98057
37342,98075
37353,98089
37363,98100
37373,98109
37384,98109
37394,98108
37404,98096
37414,98094
37424,98085
37434,98086
37444,98086
37455,98090
37465,98092
37475,98099
37485,98114
37495,98122
37505,98135
37515,98152
37525,98176
37535,98187
37545,98205
37555,98223
37565,98247
37576,98269
37586,98286
37596,98306
37606,98334
37616,98355
37627,98375
37637,98393
37647,98409
37657,98426
37667,98443
37677,98456
37687,98467
37697,98477
37708,98470
37718,98438
37728,98372
37738,98265
37748,98141
37758,98042
37768,97967
37778,97919
37788,97894
37798,97880
37808,97881
37818,97897
37829,97907
37839,97922
37850,97945
37860,97963
37870,97975
37880,97989
37890,98001
37900,98011
37910,98023
37920,98037
37930,98049
37941,98064
37951,98076
37961,98091
37971,98098
37981,98104
37991,98091
38001,98086
38011,98077
38021,98065
38031,98053
38041,98051
38051,98055
38062,98056
38072,98063
38082,98061
38093,98074
38103,98084
38113,98095
38123,98109
38133,98125
38143,98145
38153,98159
38163,98168
38174,98181
38184,98195
38194,98208
38204,98225
38214,98239
38224,98261
38234,98277
38244,98289
38254,98302
38264,98313
38274,98327
38284,98337
38295,98344
38305,98352
38316,98348
38326,98316
38336,98243
38346,98136
38356,98023
38366,97922
38376,97853
38386,97806
38396,97773
38406,97750
38417,97744
38427,97747
38437,97765
38447,97774
38457,97792
38467,97811
38477,97819
38487,97833
38497,97848
38507,97858
38517,97865
38527,97876
38538,97889
38549,97905
38559,97918
38569,97932
38579,97935
38589,97932
38599,97926
38609,97917
38619,97907
38629,97900
38639,97895
38650,97898
38660,97895
38670,97899
38680,97903
38690,97914
38700,97925
38710,97941
38720,97956
38730,97966
38740,97987
38750,98010
38760,98026
38772,98051
38782,98062
38792,98079
38802,98098
38812,98114
38822,98133
38832,98151
38842,98164
38852,98183
38862,98203
38872,98222
38882,98231
38892,98245
38903,98253
38913,98248
38923,98221
38933,98152
38943,98065
38953,97974
38963,97894
38973,97834
38983,97795
38994,97765
39004,97744
39015,97747
39025,97745
39035,97765
39045,97780
39055,97805
39065,97825
39075,97841
39085,97863
39095,97872
39105,97887
39115,97896
39125,97910
39136,97920
39146,97942
39156,97954
39166,97963
39176,97971
39186,97971
39196,97970
39206,97965
39216,97953
39227,97945
39237,97948
39247,97946
39258,97948
39268,97948
39278,97955
39288,97961
39298,97970
39308,97991
39318,98001
39328,98020
39338,98036
39348,98055
39358,98078
39369,98089
39379,98108
39389,98130
39399,98147
39409,98162
39419,98179
39429,98200
39439,98218
39450,98237
39460,98257
39470,98274
39480,98289
39491,98304
39501,98310
39511,98308
39521,98281
39531,98215
39541,98125
39551,98024
39561,97938
39571,97884
39581,97836
39591,97807
39601,97790
39612,97785
39622,97788
39632,97800
39642,97816
39652,97835
39662,97853
39672,97869
39683,97891
39693,97900
39703,97905
39713,97915
39723,97928
39734,97943
39744,97951
39754,97969
39764,97986
39774,97994
39784,98000
39794,98001
39804,97997
39814,97992
39824,97989
39834,97980
39845,97979
39855,97985
39865,97980
39875,97986
39885,97995
39895,98003
39906,98015
39916,98029
39926,98037
39936,98059
39946,98076
39956,98094
39967,98113
39977,98137
39987,98162
39997,98177
40007,98197
40017,98214
40027,98229
40037,98247
40047,98258
40057,98275
40067,98293
40078,98301
40088,98311
40098,98310
40108,98310
40118,98278
40128,98218
40139,98116
40149,98020
40159,97935
40169,97867
40179,97817
40189,97780
40200,97760
40210,97753
40220,97760
40230,97762
40240,97779
40250,97795
40260,97816
40270,97833
40280,97845
40290,97854
40300,97864
40311,97874
40321,97885
40331,97894
40341,97908
40351,97922
40361,97936
40372,97952
40382,97954
40392,97956
40402,97951
40412,97944
40422,97938
40433,97935
40443,97933
40453,97926
40463,97933
40473,97936
40483,97940
40493,97955
40503,97966
40513,97971
40523,97984
40533,98001
40544,98016
40554,98036
40564,98050
40574,98075
40584,98090
40595,98112
40605,98128
40615,98147
40625,98166
40635,98185
40645,98204
40655,98222
40665,98243
40676,98257
40686,98273
40696,98285
40706,98294
40716,98288
40726,98257
40736,98181
40746,98080
40756,97979
40766,97897
40776,97836
40787,97799
40797,97776
40807,97758
40817,97754
40828,97764
40838,97776
40848,97796
40858,97811
40868,97834
40878,97848
40888,97865
40899,97876
40909,97890
40919,97900
40929,97917
40939,97924
40949,97945
40959,97961
40969,97968
40979,97979
40989,97977
40999,97980
41009,97976
41020,97966
41030,97965
41040,97958
41050,97956
41061,97953
41071,97956
41081,97958
41091,97966
41101,97969
41111,97979
41121,97988
41131,98002
41142,98016
41152,98033
41162,98047
41172,98063
41182,98082
41192,98103
41202,98123
41212,98142
41222,98160
41232,98182
41242,98200
41253,98216
41263,98238
41273,98257
41284,98278
41294,98289
41304,98299
41314,98298
41324,98277
41334,98213
41344,98105
41354,97999
41364,97909
41375,97840
41385,97786
41395,97752
41405,97733
41415,97727
41425,97731
41435,97740
41445,97755
41455,97777
41465,97797
41475,97817
41486,97828
41496,97845
41506,97859
41517,97866
41527,97881
41537,97894
41547,97911
41557,97934
41567,97945
41577,97953
41587,97952
41598,97948
41608,97941
41618,97932
41628,97922
41638,97919
41648,97920
41658,97917
41668,97921
41678,97929
41688,97935
41699,97945
41709,97955
41719,97971
41729,97992
41740,98015
41750,98039
41760,98066
41770,98085
41780,98112
41790,98134
41800,98150
41811,98168
41821,98177
41831,98195
41841,98202
41851,98212
41861,98227
41871,98234
41881,98242
41891,98251
41901,98253
41911,98232
41921,98171
41932,98090
41942,97991
41952,97906
41962,97845
41973,97792
41983,97766
41993,97741
42003,97730
42013,97738
42023,97749
42033,97762
42044,97788
42054,97803
42064,97820
42074,97837
42084,97859
42094,97870
42104,97881
42114,97893
42124,97911
42134,97927
42144,97942
42155,97956
42165,97963
42175,97964
42185,97961
42195,97958
42206,97954
42216,97944
42226,97941
42236,97939
42246,97942
42256,97938
42267,97944
42277,97950
42287,97961
42297,97970
42307,97985
42317,98003
42327,98018
42337,98037
42347,98062
42357,98080
42367,98105
42378,98129
42388,98151
42398,98174
42408,98197
42418,98214
42429,98232
42439,98250
42449,98269
42459,98281
42469,98294
42479,98301
42489,98302
42500,98277
42510,98214
42520,98123
42530,98015
42540,97920
42550,97844
42560,97793
42570,97760
42580,97737
42590,97733
42600,97732
42610,97748
42621,97762
42631,97786
42641,97808
42651,97825
42662,97842
42672,97851
42682,97865
42692,97875
42702,97887
42712,97901
42723,97914
42733,97931
42743,97947
42753,97956
42763,97958
42773,97960
42783,97957
42793,97951
42803,97951
42813,97933
42823,97933
42833,97928
42843,97931
42854,97936
42864,97937
42874,97950
42885,97955
42895,97970
42905,97991
42915,98007
42925,98029
42935,98050
42945,98067
42956,98089
42966,98111
42976,98133
42986,98158
42996,98176
43006,98202
43016,98226
43026,98240
43036,98262
43046,98283
43056,98297
43066,98307
43077,98310
43087,98291
43097,98235
43107,98145
43118,98036
43128,97936
43138,97868
43148,97815
43158,97777
43168,97757
43178,97749
43189,97755
43199,97765
43209,97780
43219,97796
43229,97811
43239,97827
43249,97835
43259,97850
43269,97863
43279,97866
43289,97874
43299,97883
43309,97899
43320,97919
43330,97929
43341,97940
43351,97949
43361,97955
43371,97950
43381,97946
43391,97942
43401,97940
43411,97940
43421,97939
43431,97941
43442,97945
43452,97950
43462,97953
43472,97966
43482,97983
43492,98000
43502,98018
43512,98037
43522,98058
43532,98080
43542,98103
43552,98121
43563,98150
43574,98167
43584,98186
43594,98207
43604,98225
43614,98245
43624,98263
43634,98280
43644,98294
43654,98311
43664,98318
43674,98309
43684,98271
43695,98189
43705,98081
43715,97978
43725,97891
43735,97834
43745,97793
43755,97772
43765,97757
43775,97760
43785,97770
43796,97777
43807,97798
43817,97817
43827,97834
43837,97853
43847,97869
43857,97879
43867,97890
43877,97910
43887,97922
43897,97936
43907,97953
43917,97968
43928,97977
43938,97984
43948,97983
43958,97978
43968,97975
43978,97962
43988,97955
43998,97953
44008,97950
44018,97953
44029,97956
44039,97965
44050,97971
44060,97986
44070,97999
44080,98018
44090,98031
44100,98052
44110,98070
44120,98093
44130,98114
44140,98134
44150,98156
44160,98173
44171,98194
44181,98216
44191,98234
44201,98254
44211,98274
44221,98291
44231,98304
44241,98319
44252,98328
44262,98325
44272,98304
44283,98241
44293,98142
44303,98032
44313,97939
44323,97872
44333,97814
44343,97782
44353,97767
44363,97760
44373,97766
44383,97773
44393,97787
44404,97801
44414,97823
44424,97839
44434,97855
44444,97867
44454,97877
44464,97891
44474,97904
44485,97916
44495,97938
44505,97956
44515,97962
44526,97973
44536,97971
44546,97971
44556,97956
44566,97948
44576,97931
44586,97925
44596,97922
44606,97920
44616,97923
44626,97930
44637,97942
44647,97953
44657,97963
44667,97980
44677,98001
44687,98015
44697,98033
44708,98057
44718,98068
44728,98087
44738,98106
44748,98125
44758,98140
44769,98156
44779,98173
44789,98185
44799,98201
44809,98212
44819,98216
44829,98225
44839,98227
44849,98214
44859,98176
44869,98106
44879,98013
44890,97925
44900,97853
44910,97799
44920,97762
44931,97737
44941,97723
44951,97725
44961,97730
44971,97745
44981,97759
44991,97777
45001,97795
45012,97809
45022,97822
45032,97831
45042,97840
45052,97846
45062,97861
45072,97874
45082,97891
45092,97903
45102,97922
45112,97923
45122,97928
45133,97925
45143,97917
45153,97914
45164,97908
45174,97900
45184,97899
45194,97901
45204,97908
45214,97913
45224,97927
45235,97933
45245,97948
45255,97965
45265,97982
45275,98000
45285,98019
45295,98042
45305,98058
45315,98076
45325,98097
45335,98108
45345,98125
45355,98144
45366,98161
45376,98173
45387,98187
45397,98197
45407,98207
45417,98222
45427,98229
45437,98218
45447,98189
45457,98126
45467,98037
45478,97948
45488,97872
45498,97814
45508,97761
45518,97734
45528,97722
45538,97718
45548,97723
45558,97736
45568,97751
45578,97766
45588,97784
45599,97799
45609,97810
45620,97818
45630,97821
45640,97823
45650,97831
45660,97839
45670,97855
45680,97867
45690,97882
45700,97893
45710,97902
45721,97900
45731,97895
45741,97887
45751,97888
45761,97888
45771,97886
45781,97892
45791,97898
45801,97893
45811,97902
45821,97909
45832,97915
45842,97918
45853,97933
45863,97944
45873,97964
45883,97985
45893,98004
45903,98018
45913,98037
45923,98061
45933,98082
45943,98095
45954,98114
45964,98136
45974,98159
45984,98176
45994,98189
46004,98204
46014,98208
46024,98215
46034,98208
46044,98184
46054,98122
46064,98033
46076,97940
46086,97860
46096,97805
46106,97755
46116,97726
46126,97706
46136,97704
46146,97710
46156,97722
46166,97745
46176,97761
46187,97780
46197,97795
46207,97804
46217,97816
46227,97828
46237,97832
46247,97847
46257,97857
46267,97873
46277,97885
46287,97905
46298,97909
46309,97918
46319,97920
46329,97916
46339,97916
46349,97914
46359,97914
46369,97915
46379,97915
46389,97919
46399,97925
46409,97934
46420,97937
46430,97946
46440,97964
46450,97978
46460,97992
46470,98008
46480,98029
46490,98051
46500,98076
46510,98096
46520,98121
46531,98141
46542,98159
46552,98178
46562,98195
46572,98215
46582,98232
46592,98248
46602,98262
46612,98278
46622,98291
46632,98296
46642,98292
46652,98261
46663,98190
46673,98087
46683,97975
46693,97888
46703,97821
46713,97774
46723,97745
46733,97732
46743,97736
46753,97742
46764,97754
46775,97775
46785,97797
46795,97819
46805,97837
46815,97856
46825,97865
46835,97869
46845,97879
46855,97890
46865,97907
46875,97924
46885,97952
46896,97968
46906,97978
46916,97987
46926,97993
46936,97989
46946,97987
46956,97986
46966,97980
46976,97983
46986,97986
46997,97989
47007,97995
47018,98004
47028,98021
47038,98034
47048,98055
47058,98077
47068,98103
47078,98126
47088,98154
47098,98182
47108,98209
47118,98237
47129,98266
47139,98293
47149,98317
47159,98346
47169,98374
47179,98396
47189,98425
47199,98448
47209,98470
47219,98489
47230,98502
47240,98515
47250,98517
47261,98498
47271,98443
47281,98346
47291,98211
47301,98078
47311,97969
47321,97894
47331,97853
47341,97828
47351,97823
47361,97830
47372,97851
47382,97869
47392,97895
47402,97921
47412,97945
47422,97968
47432,97985
47442,98009
47453,98024
47463,98045
47473,98063
47483,98087
47493,98115
47504,98140
47514,98150
47524,98156
47534,98163
47544,98153
47554,98145
47564,98133
47574,98117
47584,98114
47594,98113
47604,98113
47614,98119
47624,98129
47635,98145
47645,98159
47655,98184
47665,98205
47676,98227
47686,98253
47696,98286
47706,98310
47716,98337
47726,98363
47736,98384
47746,98403
47757,98427
47767,98443
47777,98454
47787,98472
47797,98489
47807,98501
47817,98517
47827,98525
47837,98530
47847,98527
47857,98498
47868,98425
47878,98306
47888,98161
47898,98037
47909,97942
47919,97886
47929,97851
47939,97840
47949,97836
47959,97846
47969,97864
47979,97881
47989,97903
48000,97926
48010,97939
48020,97949
48030,97960
48040,97973
48050,97984
48060,97998
48070,98025
48080,98039
48090,98057
48100,98067
48110,98075
48120,98078
48132,98070
48142,98065
48152,98051
48162,98041
48172,98036
48182,98028
48192,98031
48202,98030
48212,98036
48222,98047
48232,98059
48242,98073
48253,98089
48263,98113
48273,98135
48283,98157
48293,98178
48303,98211
48313,98232
48323,98259
48333,98279
48343,98295
48353,98315
48364,98340
48374,98357
48384,98378
48395,98395
48405,98409
48415,98432
48425,98440
48435,98431
48445,98398
48455,98325
48465,98214
48475,98093
48485,97992
48495,97918
48505,97869
48515,97833
48526,97823
48536,97820
48546,97829
48556,97842
48566,97867
48576,97885
48586,97909
48597,97928
48607,97948
48617,97959
48628,97971
48638,97980
48648,97992
48658,98007
48668,98027
48678,98045
48688,98062
48698,98076
48708,98078
48718,98084
48728,98080
48738,98072
48748,98063
48758,98060
48769,98059
48779,98063
48789,98069
48799,98075
48809,98084
48819,98095
48830,98110
48840,98131
48850,98148
48860,98175
48870,98201
48880,98232
48891,98254
48901,98278
48911,98306
48921,98335
48931,98366
48941,98385
48951,98414
48961,98436
48971,98464
48981,98487
48991,98511
49002,98525
49012,98540
49022,98544
49032,98534
49042,98500
49053,98406
49063,98280
49073,98140
49083,98024
49093,97947
49103,97894
49113,97865
49124,97849
49134,97852
49144,97861
49154,97881
49164,97900
49174,97927
49184,97950
49194,97965
49204,97985
49214,97993
49224,98007
49234,98019
49245,98036
49254,98056
49265,98078
49275,98101
49286,98119
49296,98134
49306,98141
49316,98143
49326,98135
49336,98124
49346,98118
49356,98108
49367,98109
49377,98114
49387,98118
49397,98123
49407,98133
49417,98147
49427,98167
49437,98189
49447,98214
49457,98243
49467,98272
49477,98303
49487,98329
49498,98361
49508,98393
49519,98416
49529,98442
49539,98466
49549,98489
49559,98509
49569,98531
49579,98555
49589,98577
49599,98593
49609,98603
49620,98612
49630,98597
49640,98558
49650,98467
49660,98331
49670,98181
49680,98066
49690,97981
49700,97929
49710,97904
49720,97898
49730,97900
49742,97917
49752,97933
49762,97959
49772,97993
49782,98021
49792,98042
49802,98066
49812,98079
49822,98098
49832,98113
49843,98131
49853,98156
49863,98177
49873,98207
49883,98231
49893,98242
49903,98252
49913,98254
49923,98246
49933,98237
49943,98224
49954,98220
49963,98219
49974,98224
49985,98225
49995,98230
50005,98241
50015,98251
50025,98269
50035,98288
50045,98314
50055,98335
50065,98360
50076,98389
50086,98417
50096,98445
50106,98476
50116,98503
50126,98526
50136,98549
50146,98572
50156,98593
50166,98604
50176,98628
50186,98641
50197,98659
50208,98660
50218,98668
50228,98649
50238,98602
50248,98517
50258,98376
50268,98220
50278,98087
50288,97995
50298,97952
50309,97921
50319,97916
50329,97924
50339,97940
50349,97965
50359,97996
50369,98019
50379,98045
50389,98066
50399,98088
50409,98107
50419,98129
50430,98146
50441,98173
50451,98204
50461,98229
50471,98255
50481,98263
50491,98267
50501,98262
50511,98243
50521,98228
50532,98207
50542,98190
50552,98181
50562,98175
50572,98181
50582,98186
50592,98196
50602,98205
50612,98229
50622,98251
50632,98278
50642,98310
50652,98345
50662,98373
50674,98397
50684,98425
50694,98451
50704,98484
50714,98510
50724,98533
50734,98553
50744,98572
50754,98589
50764,98605
50774,98621
50785,98635
50795,98639
50805,98642
50815,98621
50825,98569
50835,98470
50845,98317
50855,98166
50865,98049
50875,97977
50885,97934
50896,97914
50907,97910
50917,97915
50927,97930
50937,97948
50947,97974
50957,97994
50967,98014
50977,98042
50987,98059
50997,98072
51007,98086
51017,98105
51028,98127
51038,98150
51048,98166
51058,98188
51068,98193
51078,98201
51088,98198
51098,98188
51108,98180
51118,98170
51128,98158
51140,98152
51150,98144
51160,98146
51170,98154
51180,98164
51190,98176
51200,98196
51210,98217
51220,98245
51230,98268
51240,98296
51250,98323
51261,98353
51271,98378
51281,98412
51291,98439
51301,98468
51311,98491
51321,98513
51331,98544
51341,98563
51351,98580
51361,98590
51372,98604
51382,98613
51393,98614
51403,98581
51413,98503
51423,98377
51433,98229
51443,98096
51453,98005
51463,97949
51473,97919
51483,97906
51493,97900
51504,97910
51514,97925
51524,97948
51534,97961
51544,97988
51554,98008
51564,98026
51574,98046
51584,98049
51594,98063
51605,98077
51615,98098
51625,98121
51636,98147
51646,98161
51656,98178
51666,98184
51676,98189
51686,98188
51696,98177
51706,98170
51716,98156
51726,98150
51737,98146
51747,98152
51757,98156
51767,98158
51777,98177
51787,98187
51797,98207
51807,98230
51817,98250
51828,98276
51838,98304
51848,98333
51859,98364
51869,98394
51879,98426
51889,98454
51899,98479
51909,98502
51919,98524
51929,98549
51939,98569
51949,98583
51959,98599
51970,98608
51980,98607
51990,98587
52000,98525
52010,98406
52020,98256
52030,98116
52040,98014
52050,97953
52061,97916
52071,97894
52081,97894
52092,97901
52102,97919
52112,97937
52122,97961
52132,97987
52142,98010
52152,98025
52162,98038
52172,98047
52182,98063
52192,98072
52202,98089
52213,98100
52223,98126
52233,98146
52243,98159
52253,98170
52263,98174
52273,98177
52283,98171
52294,98162
52304,98155
52314,98156
52324,98155
52335,98150
52345,98156
52355,98159
52365,98172
52375,98186
52385,98206
52395,98224
52405,98250
52415,98273
52425,98294
52435,98315
52446,98330
52456,98353
52466,98372
52476,98393
52486,98416
52496,98437
52506,98460
52517,98482
52527,98501
52537,98520
52547,98537
52557,98550
52568,98564
52578,98552
52588,98517
52598,98441
52608,98312
52618,98171
52628,98050
52638,97968
52648,97920
52658,97892
52668,97877
52679,97879
52689,97887
52699,97904
52709,97926
52719,97946
52729,97974
52739,97992
52750,98009
52760,98017
52770,98031
52780,98035
52791,98054
52801,98068
52811,98095
52821,98119
52831,98135
52841,98147
52851,98158
52861,98156
52871,98149
52881,98146
52891,98135
52901,98135
52912,98128
52922,98127
52932,98131
52942,98137
52952,98144
52962,98161
52972,98174
52983,98191
52993,98217
53003,98245
53013,98273
53024,98301
53034,98331
53044,98360
53054,98391
53064,98417
53074,98441
53084,98468
53094,98492
53104,98517
53114,98537
53124,98560
53135,98578
53145,98595
53155,98611
53165,98620
53175,98623
53185,98602
53195,98549
53206,98443
53216,98296
53226,98149
53236,98035
53247,97960
53257,97923
53267,97906
53277,97901
53287,97913
53297,97932
53307,97956
53317,97981
53327,98009
53337,98036
53347,98063
53358,98089
53368,98107
53378,98120
53388,98144
53398,98162
53408,98188
53418,98209
53429,98230
53439,98245
53449,98255
53459,98256
53469,98252
53480,98235
53490,98223
53500,98212
53510,98203
53520,98201
53530,98202
53540,98205
53550,98219
53560,98237
53570,98250
53580,98272
53590,98302
53601,98332
53611,98358
53621,98386
53631,98414
53641,98444
53651,98468
53662,98488
53672,98514
53682,98534
53692,98560
53702,98580
53712,98598
53723,98619
53733,98638
53743,98653
53753,98668
53763,98678
53773,98668
53783,98639
53793,98575
53803,98455
53813,98291
53823,98136
53833,98025
53844,97956
53854,97920
53864,97908
53874,97901
53885,97912
53895,97933
53905,97952
53915,97974
53925,97998
53935,98026
53945,98043
53955,98064
53965,98085
53976,98103
53986,98121
53996,98142
54006,98165
54016,98190
54026,98208
54036,98216
54046,98219
54056,98214
54066,98204
54076,98185
54086,98169
54097,98152
54107,98139
54118,98132
54128,98130
54138,98136
54148,98136
54158,98157
54168,98167
54178,98180
54188,98197
54198,98227
54209,98249
54219,98267
54229,98291
54239,98317
54249,98345
54259,98371
54269,98394
54279,98426
54289,98458
54299,98491
54309,98520
54319,98544
54330,98565
54340,98581
54351,98591
54361,98589
54371,98570
54381,98501
54391,98383
54401,98235
54411,98112
54421,98025
54431,97966
54442,97935
54452,97920
54462,97923
54472,97935
54482,97952
54492,97969
54502,97996
54512,98025
54522,98052
54532,98071
54542,98093
54553,98106
54563,98125
54574,98137
54584,98162
54594,98185
54604,98207
54614,98228
54624,98244
54634,98250
54644,98261
54654,98257
54664,98250
54675,98244
54685,98241
54695,98234
54705,98239
54715,98245
54725,98248
54735,98266
54745,98280
54755,98306
54765,98332
54775,98357
54785,98392
54796,98426
54807,98463
54817,98494
54827,98531
54837,98558
54847,98592
54857,98616
54867,98642
54877,98665
54887,98688
54897,98716
54907,98734
54918,98753
54928,98772
54938,98782
54948,98791
54958,98787
54968,98755
54978,98683
54988,98568
54998,98401
55008,98238
55018,98117
55029,98040
55040,98001
55050,97988
55060,97991
55070,98009
55080,98029
55090,98056
55100,98083
55110,98115
55120,98137
55130,98153
55140,98165
55150,98180
55161,98200
55171,98222
55181,98242
55191,98268
55201,98306
55211,98327
55221,98354
55231,98370
55241,98387
55251,98386
55262,98386
55273,98381
55283,98372
55293,98364
55303,98358
55313,98362
55323,98368
55333,98379
55343,98392
55353,98411
55363,98441
55373,98464
55383,98491
55393,98515
55404,98547
55414,98572
55424,98602
55434,98620
55444,98645
55454,98675
55464,98703
55474,98724
55484,98742
55495,98762
55505,98782
55515,98799
55526,98821
55536,98834
55546,98835
55556,98833
55566,98810
55576,98754
55586,98660
55596,98521
55606,98361
55616,98222
55626,98133
55636,98071
55647,98052
55657,98055
55667,98070
55677,98097
55687,98124
55697,98165
55707,98209
55717,98243
55728,98276
55738,98300
55748,98321
55758,98336
55769,98364
55779,98398
55789,98426
55799,98453
55809,98487
55819,98515
55829,98535
55839,98547
55849,98559
55859,98561
55869,98560
55880,98554
55890,98549
55900,98548
55910,98542
55920,98549
55930,98557
55940,98570
55950,98583
55961,98600
55971,98622
55981,98646
55991,98672
56002,98689
56012,98716
56022,98737
56032,98757
56042,98783
56052,98800
56062,98817
56072,98836
56082,98855
56092,98869
56102,98878
56112,98895
56123,98909
56133,98916
56143,98928
56153,98938
56163,98936
56173,98921
56184,98872
56194,98788
56204,98660
56214,98485
56224,98330
56235,98222
56245,98162
56255,98139
56265,98130
56275,98141
56285,98155
56295,98184
56305,98214
56315,98243
56325,98272
56335,98294
56345,98312
56356,98323
56366,98330
56376,98347
56386,98359
56396,98388
56406,98410
56417,98428
56427,98441
56437,98453
56447,98460
56457,98461
56467,98461
56478,98445
56488,98445
56498,98443
56508,98447
56518,98445
56528,98461
56538,98471
56548,98488
56558,98502
56568,98528
56578,98555
56588,98581
56599,98608
56609,98631
56619,98663
56629,98692
56639,98715
56650,98738
56660,98754
56670,98770
56680,98784
56690,98802
56700,98822
56710,98833
56721,98847
56731,98856
56741,98865
56751,98879
56761,98882
56771,98888
56781,98882
56791,98854
56801,98792
56811,98689
56821,98539
56831,98375
56842,98253
56852,98174
56862,98131
56873,98116
56883,98116
56893,98129
56903,98155
56913,98183
56923,98211
56933,98244
56943,98264
56953,98288
56964,98307
56974,98322
56984,98335
56994,98362
57004,98392
57014,98421
57024,98451
57034,98477
57044,98497
57054,98507
57064,98508
57075,98505
57085,98496
57095,98486
57106,98481
57116,98480
57126,98483
57136,98488
57146,98500
57156,98517
57166,98538
57176,98561
57186,98597
57196,98626
57207,98657
57217,98688
57227,98714
57237,98734
57247,98759
57257,98776
57267,98798
57277,98821
57287,98841
57297,98856
57307,98871
57317,98882
57329,98894
57339,98906
57349,98924
57359,98934
57369,98937
57379,98941
57389,98928
57399,98896
57409,98837
57419,98753
57429,98635
57440,98504
57450,98385
57460,98303
57470,98263
57480,98251
57490,98263
57500,98283
57510,98315
57520,98349
57530,98382
57540,98418
57550,98444
57562,98468
57572,98490
57582,98505
57592,98523
57602,98547
57612,98574
57622,98602
57632,98626
57642,98646
57652,98662
57662,98669
57673,98668
57683,98665
57693,98657
57703,98643
57713,98635
57723,98631
57733,98622
57743,98633
57753,98638
57763,98660
57773,98676
57784,98693
57794,98715
57804,98739
57815,98760
57825,98778
57835,98799
57845,98816
57855,98835
57865,98851
57875,98860
57885,98873
57895,98878
57905,98887
57915,98896
57926,98906
57936,98909
57946,98917
57956,98920
57966,98928
57976,98928
57986,98920
57996,98903
58006,98848
58017,98743
58027,98601
58037,98440
58048,98312
58058,98233
58068,98187
58078,98171
58088,98166
58098,98182
58108,98196
58118,98220
58128,98239
58138,98259
58148,98275
58158,98289
58169,98299
58179,98313
58189,98319
58199,98332
58209,98350
58219,98373
58229,98391
58240,98413
58250,98435
58260,98444
58270,98459
58280,98463
58291,98461
58301,98460
58311,98453
58321,98455
58331,98458
58341,98464
58351,98476
58361,98490
58371,98509
58381,98529
58391,98549
58401,98576
58412,98606
58422,98636
58432,98661
58442,98689
58452,98720
58463,98741
58473,98772
58483,98795
58493,98815
58503,98829
58513,98852
58523,98857
58534,98870
58544,98876
58554,98888
58564,98899
58574,98907
58584,98912
58594,98911
58604,98905
58614,98866
58624,98792
58634,98675
58644,98522
58655,98386
58665,98287
58675,98230
58685,98195
58696,98182
58706,98186
58716,98202
58726,98216
58736,98246
58746,98266
58756,98295
58766,98319
58776,98340
58787,98353
58797,98365
58807,98378
58817,98394
58827,98415
58837,98436
58847,98462
58857,98483
58867,98496
58877,98498
58887,98499
58897,98503
58908,98497
58919,98489
58929,98479
58939,98474
58949,98471
58959,98480
58969,98488
58979,98501
58989,98520
58999,98539
59009,98562
59019,98592
59030,98613
59040,98641
59050,98669
59060,98690
59070,98716
59080,98743
59090,98762
59100,98786
59110,98803
59120,98823
59130,98839
59140,98858
59151,98882
59162,98894
59172,98908
59182,98922
59192,98932
59202,98936
59212,98932
59222,98909
59232,98860
59242,98767
59252,98624
59262,98469
59272,98341
59282,98252
59293,98208
59303,98178
59313,98176
59323,98186
59333,98201
59343,98227
59353,98253
59363,98281
59374,98303
59384,98327
59394,98347
59404,98366
59415,98374
59425,98392
59435,98421
59445,98439
59455,98473
59465,98496
59475,98517
59485,98533
59495,98546
59505,98548
59515,98542
59525,98537
59535,98528
59546,98523
59556,98519
59566,98524
59576,98540
59586,98558
59597,98571
59607,98597
59617,98626
59627,98647
59637,98675
59647,98712
59657,98746
59667,98774
59677,98804
59688,98833
59698,98853
59708,98880
59718,98912
59728,98934
59738,98968
59748,98990
59758,99013
59768,99034
59778,99049
59788,99061
59798,99069
59808,99074
59819,99078
59830,99055
59840,99012
59850,98936
59860,98828
59870,98690
59880,98549
59890,98439
59900,98367
59910,98342
59920,98337
59931,98351
59941,98378
59951,98420
59961,98471
59971,98516
59981,98564
59991,98598
END
