5873,97929
5883,97827
5893,97709
5904,97593
5914,97508
5924,97454
5934,97434
5944,97440
5954,97463
5964,97502
5974,97555
5984,97615
5994,97667
6004,97711
6015,97743
6025,97777
6035,97801
6045,97820
6055,97838
6065,97859
6076,97877
6086,97887
6096,97897
6106,97905
6116,97912
6126,97912
6136,97912
6147,97913
6157,97911
6167,97908
6177,97905
6187,97911
6197,97913
6207,97917
6217,97923
6227,97936
6237,97939
6247,97958
6258,97966
6268,97981
6278,97996
6288,98004
6299,98012
6309,98016
6319,98024
6329,98029
6339,98041
6349,98047
6359,98046
6370,98053
6380,98058
6390,98062
6400,98065
6410,98061
6420,98048
6430,98010
6440,97932
6450,97821
6460,97688
6470,97554
6480,97458
6490,97392
6500,97348
6512,97342
6522,97351
6532,97373
6542,97407
6552,97444
6562,97483
6572,97524
6582,97556
6592,97583
6602,97611
6612,97631
6622,97662
6633,97692
6643,97726
6653,97758
6663,97781
6673,97801
6683,97816
6693,97822
6703,97821
6713,97821
6723,97813
6733,97803
6744,97796
6755,97792
6765,97796
6775,97802
6785,97815
6795,97824
6805,97842
6815,97861
6825,97883
6835,97906
6845,97924
6855,97941
6865,97956
6875,97971
6886,97988
6896,97998
6906,98012
6916,98023
6926,98035
6936,98048
6946,98057
6956,98067
6967,98077
6977,98082
6987,98082
6997,98078
7008,98042
7018,97972
7028,97869
7038,97733
7048,97603
7058,97495
7068,97425
7078,97389
7088,97375
7098,97384
7108,97402
7118,97438
7129,97471
7139,97505
7149,97536
7159,97568
7169,97606
7179,97641
7190,97676
7200,97711
7210,97748
7220,97781
7230,97810
7240,97839
7250,97860
7261,97880
7271,97889
7281,97895
7291,97902
7301,97899
7311,97892
7321,97890
7331,97888
7341,97889
7351,97887
7362,97894
7371,97903
7382,97917
7392,97926
7403,97940
7413,97952
7423,97964
7433,97983
7443,97993
7453,98003
7463,98012
7473,98029
7483,98038
7493,98052
7504,98065
7514,98072
7524,98086
7534,98096
7544,98110
7554,98117
7564,98122
7574,98118
7584,98085
7594,98024
7604,97928
7614,97797
7626,97660
7636,97549
7646,97473
7656,97431
7666,97416
7676,97419
7686,97443
7696,97473
7706,97505
7716,97541
7726,97576
7736,97607
7747,97633
7757,97656
7767,97676
7777,97695
7787,97729
7797,97753
7807,97786
7817,97813
7827,97835
7837,97847
7848,97854
7858,97860
7869,97861
7879,97862
7889,97857
7899,97853
7909,97845
7919,97838
7929,97844
7939,97845
7949,97855
7959,97868
7969,97877
7979,97895
7990,97924
8000,97946
8010,97969
8020,97986
8030,98010
8040,98030
8050,98039
8060,98052
8071,98062
8081,98078
8091,98089
8101,98100
8112,98112
8122,98119
8132,98123
8142,98126
8152,98111
8162,98072
8172,97984
8182,97855
8192,97708
8202,97577
8212,97478
8222,97412
8232,97373
8243,97357
8253,97361
8263,97386
8273,97410
8283,97440
8294,97470
8304,97498
8314,97527
8324,97548
8334,97568
8345,97590
8355,97609
8365,97635
8375,97665
8385,97696
8395,97729
8405,97757
8415,97780
8425,97798
8435,97805
8445,97803
8455,97804
8465,97801
8476,97804
8486,97808
8496,97810
8506,97811
8517,97820
8527,97831
8537,97844
8547,97856
8557,97870
8567,97890
8577,97912
8588,97932
8598,97951
8608,97973
8618,97992
8628,98010
8638,98025
8648,98041
8658,98059
8668,98072
8678,98082
8688,98094
8698,98109
8709,98117
8719,98123
8729,98115
8740,98091
8750,98037
8760,97946
8770,97828
8780,97696
8790,97587
8800,97508
8810,97459
8820,97446
8831,97444
8841,97459
8851,97485
8861,97521
8871,97559
8881,97593
8891,97628
8901,97656
8911,97683
8921,97710
8931,97740
8941,97767
8951,97795
8963,97824
8973,97848
8983,97862
8993,97873
9003,97887
9013,97886
9023,97883
9033,97880
9043,97878
9053,97875
9063,97870
9073,97867
9083,97871
9094,97879
9104,97893
9114,97900
9124,97907
9134,97921
9144,97942
9154,97955
9164,97966
9175,97977
9185,97994
9195,98005
9206,98019
9216,98037
9226,98048
9236,98054
9246,98066
9256,98078
9266,98092
9276,98098
9286,98107
9296,98110
9306,98109
9316,98096
9326,98060
9337,97982
9347,97873
9357,97735
9367,97606
9377,97510
9387,97452
9398,97422
9408,97418
9418,97426
9428,97455
9438,97484
9449,97520
9459,97558
9469,97591
9479,97620
9489,97643
9499,97670
9509,97689
9519,97715
9529,97747
9539,97774
9549,97799
9559,97822
9569,97839
9580,97852
9590,97862
9600,97864
9610,97863
9621,97859
9631,97857
9641,97847
9651,97842
9661,97844
9671,97852
9682,97856
9692,97873
9702,97889
9712,97905
9722,97918
9732,97941
9742,97951
9752,97970
9762,97985
9772,97995
9782,98010
9793,98027
9803,98038
9813,98050
9823,98066
9833,98078
9844,98087
9854,98098
9864,98107
9874,98118
9884,98120
9894,98097
9904,98047
9914,97962
9925,97839
9935,97692
9945,97564
9955,97470
9965,97418
9975,97394
9985,97386
9995,97409
10005,97433
10015,97467
10025,97498
10035,97537
10045,97560
10056,97589
10067,97612
10077,97627
10087,97643
10097,97667
10107,97691
10117,97717
10127,97747
10137,97779
10147,97804
10157,97824
10167,97835
10178,97845
10188,97841
10198,97837
10208,97831
10218,97833
10228,97824
10238,97834
10248,97840
10258,97849
10268,97858
10278,97874
10289,97893
10300,97909
10310,97928
10320,97943
10330,97961
10340,97977
10350,97996
10360,98012
10370,98024
10380,98036
10390,98055
10400,98071
10410,98085
10420,98091
10431,98103
10441,98112
10451,98119
10461,98116
10471,98101
10481,98050
10491,97969
10501,97849
10512,97700
10522,97566
10532,97466
10543,97402
10553,97369
10563,97354
10573,97367
10583,97390
10593,97419
10603,97442
10613,97477
10623,97505
10633,97534
10643,97554
10653,97570
10664,97582
10674,97601
10684,97631
10694,97659
10704,97701
10714,97734
10724,97759
10735,97789
10745,97812
10755,97822
10765,97829
10775,97827
10785,97821
10796,97823
10806,97824
10816,97825
10826,97828
10836,97837
10846,97844
10856,97855
10866,97870
10876,97893
10886,97915
10896,97935
10907,97953
10917,97972
10927,97989
10937,98007
10948,98025
10958,98046
10968,98059
10978,98074
10988,98086
10998,98097
11008,98111
11018,98119
11029,98132
11039,98135
11049,98142
11059,98126
11069,98095
11079,98038
11089,97933
11099,97804
11109,97659
11119,97538
11130,97457
11139,97417
11150,97395
11160,97396
11171,97407
11181,97432
11191,97460
11201,97491
11211,97513
11221,97531
11231,97546
11241,97557
11251,97568
11261,97570
11272,97586
11282,97605
11292,97625
11302,97643
11312,97668
11322,97687
11332,97697
11342,97709
11352,97713
11362,97715
11372,97714
11383,97709
11394,97707
11404,97707
11414,97708
11424,97717
11434,97734
11444,97747
11454,97765
11464,97792
11474,97816
11484,97841
11495,97863
11505,97886
11515,97906
11525,97926
11535,97947
11545,97959
11555,97979
11565,97989
11575,98010
11585,98027
11595,98042
11605,98055
11617,98063
11627,98079
11637,98083
11647,98091
11657,98074
11667,98036
11677,97960
11687,97840
11697,97698
11707,97563
11717,97458
11727,97398
11737,97365
11748,97354
11758,97362
11768,97384
11778,97410
11788,97445
11798,97483
11808,97509
11818,97534
11828,97554
11839,97569
11849,97584
11860,97611
11870,97638
11880,97673
11890,97709
11900,97744
11910,97771
11920,97799
11930,97817
11940,97834
11950,97839
11960,97837
11970,97837
11980,97833
11991,97832
12001,97839
12011,97839
12021,97846
12031,97854
12041,97871
12051,97889
12062,97910
12072,97929
12082,97951
12093,97962
12102,97989
12113,98005
12123,98023
12133,98038
12143,98056
12153,98072
12163,98081
12173,98100
12183,98111
12193,98125
12203,98133
12213,98145
12223,98151
12234,98161
12244,98166
12254,98167
12264,98155
12274,98112
12285,98045
12295,97950
12305,97823
12315,97679
12325,97568
12335,97495
12345,97461
12355,97451
12366,97459
12376,97481
12386,97512
12396,97552
12406,97592
12416,97630
12426,97662
12436,97690
12446,97711
12456,97730
12466,97749
12477,97775
12486,97803
12497,97830
12508,97854
12518,97875
12528,97891
12538,97895
12548,97899
12558,97893
12568,97887
12578,97876
12588,97862
12599,97857
12609,97857
12619,97861
12629,97871
12639,97887
12649,97901
12659,97915
12669,97932
12679,97951
12689,97968
12699,97985
12709,98001
12719,98019
12731,98030
12741,98043
12751,98051
12761,98067
12771,98075
12781,98088
12791,98099
12801,98106
12811,98120
12821,98123
12831,98137
12841,98140
12852,98143
12862,98141
12872,98115
12882,98063
12892,97971
12902,97840
12912,97691
12922,97565
12932,97474
12942,97421
12953,97389
12963,97388
12973,97402
12984,97421
12994,97454
13004,97490
13014,97527
13024,97557
13034,97586
13044,97603
13054,97624
13064,97647
13074,97664
13084,97690
13094,97719
13105,97749
13115,97778
13125,97795
13135,97811
13145,97820
13155,97828
13165,97821
13176,97815
13186,97813
13196,97805
13206,97805
13216,97815
13227,97828
13237,97838
13247,97859
13257,97874
13267,97893
13277,97917
13287,97936
13297,97957
13307,97979
13317,98004
13327,98012
13338,98029
13348,98041
13358,98054
13368,98066
13378,98078
13388,98092
13398,98108
13409,98117
13419,98131
13429,98142
13439,98152
13449,98152
13460,98145
13470,98114
13480,98048
13490,97944
13500,97795
13510,97652
13520,97531
13530,97453
13540,97405
13550,97386
13560,97388
13570,97404
13581,97432
13591,97468
13601,97505
13611,97549
13622,97581
13632,97612
13642,97639
13652,97664
13662,97696
13672,97720
13682,97756
13693,97786
13703,97819
13713,97846
13723,97864
13733,97885
13743,97887
13753,97889
13763,97884
13773,97880
13783,97870
13793,97861
13803,97854
13813,97854
13824,97853
13834,97861
13845,97864
13855,97869
13865,97874
13875,97881
13885,97887
13895,97893
13905,97905
13915,97920
13925,97943
13935,97962
13946,97978
13956,97997
13966,98013
13976,98030
13986,98049
13996,98062
14006,98077
14016,98092
14026,98104
14036,98113
14046,98121
14056,98111
14068,98076
14078,98010
14088,97881
14098,97727
14108,97588
14118,97477
14128,97404
14138,97362
14148,97349
14158,97350
14168,97370
14178,97393
14188,97422
14199,97457
14209,97484
14219,97512
14229,97532
14239,97542
14249,97553
14259,97565
14269,97580
14279,97605
14289,97639
14300,97678
14311,97710
14321,97736
14331,97761
14341,97780
14351,97782
14361,97786
14371,97786
14381,97776
14391,97776
14401,97776
14411,97782
14421,97788
14431,97794
14442,97809
14452,97829
14462,97843
14472,97866
14482,97888
14492,97907
14502,97929
14513,97952
14523,97972
14533,97998
14543,98015
14554,98035
14564,98051
14574,98067
14584,98085
14594,98100
14604,98111
14614,98124
14624,98137
14634,98146
14644,98153
14654,98158
14664,98138
14674,98096
14685,98007
14695,97883
14705,97723
14715,97572
14725,97473
14736,97407
14746,97371
14756,97368
14766,97372
14776,97395
14786,97430
14796,97460
14807,97494
14817,97520
14827,97553
14837,97575
14847,97592
14857,97610
14867,97631
14877,97659
14887,97692
14897,97736
14907,97775
14917,97807
14927,97834
14938,97851
14948,97864
14958,97871
14969,97879
14979,97877
14989,97879
14999,97879
15009,97884
15019,97890
15029,97900
15039,97906
15050,97920
15060,97933
15070,97949
15080,97969
15090,97987
15100,98004
15110,98027
15120,98050
15130,98069
15140,98084
15150,98099
15160,98111
15171,98131
15182,98143
15192,98159
15202,98171
15212,98183
15222,98194
15232,98201
15242,98210
15252,98219
15262,98220
15272,98219
15282,98190
15293,98136
15303,98050
15313,97922
15323,97766
15333,97628
15343,97531
15353,97479
15363,97456
15373,97456
15383,97472
15393,97502
15404,97547
15415,97589
15425,97632
15435,97672
15445,97704
15455,97727
15465,97749
15475,97765
15485,97790
15495,97815
15505,97846
15515,97878
15525,97912
15536,97935
15546,97954
15556,97967
15566,97974
15576,97977
15586,97971
15596,97968
15606,97961
15616,97961
15627,97967
15637,97972
15647,97979
15658,97988
15668,98002
15678,98016
15688,98028
15698,98044
15708,98067
15718,98084
15728,98099
15738,98115
15748,98132
15758,98145
15768,98159
15779,98174
15789,98188
15799,98199
15809,98216
15819,98227
15829,98240
15839,98252
15849,98259
15860,98269
15870,98275
15880,98281
15891,98269
15900,98236
15911,98179
15921,98100
15931,97986
15941,97862
15951,97733
15961,97641
15971,97584
15981,97563
15991,97570
16001,97596
16011,97628
16021,97673
16032,97724
16042,97764
16052,97804
16062,97835
16073,97857
16083,97880
16093,97894
16103,97913
16113,97932
16123,97942
16133,97959
16143,97973
16154,97984
16164,97981
16174,97992
16184,97985
16194,97981
16204,97973
16214,97959
16224,97961
16234,97962
16244,97972
16254,97983
16264,97990
16274,98004
16284,98013
16296,98037
16306,98049
16316,98068
16326,98079
16336,98096
16346,98109
16356,98119
16366,98128
16376,98136
16386,98140
16396,98142
16407,98153
16417,98165
16427,98180
16437,98190
16447,98196
16457,98208
16467,98214
16477,98212
16487,98204
16497,98172
16507,98106
16518,98003
16529,97861
16539,97715
16549,97591
16559,97511
16569,97462
16579,97444
16589,97447
16599,97462
16609,97487
16619,97524
16629,97569
16639,97609
16649,97643
16660,97674
16670,97705
16680,97725
16690,97742
16700,97769
16710,97804
16720,97832
16730,97866
16741,97893
16751,97904
16761,97915
16771,97918
16782,97916
16792,97908
16802,97901
16812,97893
16822,97898
16832,97898
16842,97906
16852,97914
16862,97929
16872,97947
16882,97962
16892,97984
16902,98000
16913,98022
16923,98041
16933,98065
16943,98083
16953,98100
16964,98117
16974,98135
16984,98152
16994,98165
17004,98181
17014,98199
17024,98211
17035,98223
17045,98233
17055,98245
17065,98246
17075,98243
17085,98237
17095,98205
17105,98136
17115,98032
17125,97897
17135,97745
17145,97622
17156,97528
17166,97478
17177,97456
17187,97454
17197,97470
17207,97506
17217,97541
17227,97584
17237,97627
17247,97660
17257,97692
17268,97717
17278,97736
17288,97758
17298,97780
17308,97810
17318,97848
17328,97876
17338,97904
17348,97929
17358,97944
17368,97961
17378,97960
17389,97960
17400,97955
17410,97951
17420,97947
17430,97951
17440,97948
17450,97962
17460,97974
17470,97990
17480,98004
17490,98024
17500,98042
17511,98060
17521,98079
17531,98099
17541,98120
17551,98139
17561,98151
17571,98165
17581,98178
17591,98188
17601,98199
17611,98212
17622,98222
17632,98230
17643,98242
17653,98249
17663,98260
17673,98264
17683,98254
17693,98232
17703,98179
17713,98092
17723,97968
17733,97819
17743,97680
17753,97577
17764,97512
17774,97481
17784,97478
17794,97488
17804,97514
17814,97557
17824,97595
17834,97633
17845,97667
17855,97698
17865,97714
17875,97736
17886,97756
17896,97781
17906,97808
17916,97841
17926,97872
17936,97899
17946,97921
17956,97944
17966,97949
17976,97957
17986,97964
17996,97966
18007,97966
18017,97962
18027,97962
18037,97966
18047,97971
18057,97982
18068,97993
18078,98004
18088,98022
18098,98042
18108,98062
18118,98077
18129,98093
18139,98113
18149,98128
18159,98145
18169,98161
18179,98170
18189,98190
18199,98203
18209,98216
18219,98233
18229,98251
18239,98259
18250,98271
18260,98279
18270,98286
18280,98286
18291,98281
18301,98259
18311,98206
18321,98115
18331,97989
18341,97842
18351,97702
18361,97591
18371,97534
18381,97508
18392,97503
18402,97521
18412,97548
18422,97584
18432,97625
18442,97664
18452,97700
18462,97732
18472,97756
18482,97781
18492,97804
18502,97825
18514,97854
18524,97889
18534,97916
18544,97951
18554,97972
18564,97990
18574,98005
18584,98008
18594,98011
18604,98011
18614,98009
18624,98009
18635,98011
18645,98019
18655,98019
18665,98031
18675,98043
18685,98058
18695,98073
18705,98094
18715,98115
18725,98126
18736,98147
18746,98163
18757,98187
18767,98196
18777,98214
18787,98231
18797,98242
18807,98262
18817,98275
18827,98290
18837,98305
18847,98316
18857,98330
18867,98338
18877,98352
18887,98357
18898,98361
18908,98350
18918,98319
18928,98254
18938,98170
18948,98057
18959,97941
18969,97820
18979,97723
18989,97665
18999,97652
19009,97657
19020,97696
19030,97738
19040,97784
19050,97837
19060,97881
19070,97912
19080,97941
19090,97962
19100,97977
19110,97994
19120,98015
19130,98036
19141,98060
19151,98086
19161,98095
19171,98107
19182,98110
19192,98117
19202,98114
19212,98111
19222,98107
19232,98098
19242,98094
19253,98093
19263,98097
19273,98103
19283,98110
19293,98120
19303,98124
19313,98141
19323,98152
19333,98165
19343,98180
19353,98189
19363,98194
19374,98219
19384,98231
19394,98246
19405,98255
19415,98268
19425,98279
19435,98286
19445,98306
19455,98316
19465,98331
19475,98340
19485,98348
19495,98357
19506,98365
19516,98360
19526,98350
19536,98308
19546,98240
19556,98148
19566,98033
19576,97909
19586,97803
19596,97723
19606,97681
19616,97673
19627,97695
19638,97723
19648,97767
19658,97817
19668,97863
19678,97910
19688,97940
19698,97968
19708,97992
19718,98011
19728,98029
19738,98051
19748,98074
19759,98099
19769,98115
19779,98129
19789,98132
19799,98139
19809,98130
19819,98131
19829,98120
19840,98108
19850,98109
19860,98104
19870,98107
19880,98114
19891,98122
19901,98124
19911,98135
19921,98149
19931,98158
19941,98170
19951,98181
19961,98192
19971,98204
19981,98217
19991,98230
20001,98239
20012,98248
20022,98253
20032,98270
20042,98278
20052,98283
20063,98291
20073,98299
20083,98303
20093,98309
20103,98313
20113,98310
20123,98301
20133,98269
20144,98201
20154,98106
20164,97980
20174,97847
20184,97730
20194,97645
20204,97596
20214,97578
20224,97585
20234,97600
20244,97627
20254,97667
20265,97712
20275,97764
20286,97801
20296,97842
20306,97872
20316,97896
20326,97927
20336,97947
20346,97976
20356,98006
20366,98032
20377,98062
20387,98073
20397,98088
20407,98093
20417,98097
20427,98090
20437,98093
20447,98092
20457,98090
20467,98093
20477,98097
20487,98110
20497,98118
20507,98125
20519,98133
20529,98146
20539,98164
20549,98183
20559,98199
20569,98216
20579,98229
20589,98245
20599,98260
20609,98271
20619,98288
20629,98298
20640,98310
20650,98326
20660,98337
20670,98353
20680,98360
20690,98371
20700,98381
20710,98387
20720,98392
20731,98379
20741,98350
20751,98290
20762,98197
20772,98077
20782,97937
20792,97807
20802,97714
20812,97667
20822,97649
20832,97656
20842,97686
20852,97721
20862,97770
20873,97813
20883,97853
20893,97894
20903,97923
20913,97945
20923,97969
20933,97993
20943,98010
20954,98033
20964,98059
20974,98086
20984,98105
20994,98119
21005,98134
21015,98142
21025,98149
21035,98145
21045,98144
21055,98143
21065,98139
21075,98133
21085,98135
21095,98139
21105,98149
21116,98154
21126,98163
21136,98176
21146,98193
21156,98209
21166,98225
21176,98243
21187,98254
21197,98266
21207,98277
21217,98289
21227,98304
21238,98321
21248,98331
21258,98344
21268,98358
21278,98367
21288,98378
21298,98385
21308,98397
21318,98404
21328,98408
21338,98394
21348,98369
21359,98310
21369,98219
21379,98112
21389,97980
21400,97858
21410,97764
21420,97707
21430,97683
21440,97689
21450,97724
21460,97770
21471,97821
21481,97874
21491,97925
21501,97960
21511,97991
21521,98008
21531,98022
21541,98040
21551,98056
21561,98077
21571,98102
21582,98123
21592,98137
21602,98153
21612,98164
21622,98168
21633,98173
21643,98180
21653,98177
21663,98172
21673,98176
21683,98174
21693,98172
21704,98177
21714,98183
21724,98189
21734,98197
21744,98206
21754,98217
21764,98228
21774,98236
21784,98253
21794,98271
21804,98284
21814,98296
21825,98312
21835,98325
21845,98334
21856,98344
21866,98357
21876,98367
21886,98376
21896,98389
21906,98400
21916,98407
21926,98414
21936,98415
21946,98415
21957,98401
21967,98356
21977,98292
21987,98196
21997,98070
22007,97936
22017,97813
22027,97724
22037,97678
22047,97668
22057,97681
22068,97704
22079,97741
22089,97789
22099,97835
22109,97879
22119,97913
22129,97945
22139,97967
22149,97986
22159,98006
22169,98026
22179,98053
22190,98074
22200,98094
22210,98117
22220,98131
22230,98141
22240,98148
22250,98149
22260,98150
22270,98149
22280,98145
22291,98144
22302,98142
22312,98149
22322,98150
22332,98158
22342,98168
22352,98175
22362,98188
22372,98203
22382,98216
22392,98232
22402,98241
22412,98252
22422,98277
22433,98285
22443,98303
22453,98316
22463,98328
22473,98345
22483,98355
22493,98368
22503,98382
22514,98389
22524,98403
22534,98410
22544,98420
22555,98422
22565,98422
22575,98406
22585,98369
22595,98298
22605,98218
22615,98103
22625,97976
22635,97853
22645,97763
22655,97709
22665,97700
22675,97712
22685,97738
22696,97781
22706,97828
22716,97880
22726,97920
22737,97958
22747,97989
22757,98011
22767,98037
22777,98064
22787,98085
22797,98112
22808,98131
22818,98153
22828,98166
22838,98177
22848,98180
22858,98182
22868,98182
22878,98175
22888,98168
22898,98169
22908,98164
22918,98164
22928,98168
22938,98176
22949,98185
22960,98192
22970,98200
22980,98210
22990,98213
23000,98222
23010,98234
23020,98237
23030,98240
23040,98245
23050,98250
23060,98247
23071,98252
23081,98259
23091,98259
23101,98269
23111,98277
23121,98280
23131,98293
23141,98299
23151,98304
23161,98309
23171,98310
23182,98303
23192,98267
23202,98208
23213,98108
23223,97981
23233,97849
23243,97732
23253,97644
23263,97600
23273,97581
23283,97586
23293,97604
23303,97629
23313,97663
23323,97701
23333,97745
23344,97787
23354,97822
23364,97853
23374,97874
23384,97900
23394,97925
23405,97953
23415,97984
23425,98008
23435,98034
23445,98054
23455,98076
23466,98086
23476,98094
23486,98095
23496,98093
23506,98093
23516,98096
23526,98097
23536,98106
23546,98115
23556,98126
23566,98136
23576,98148
23587,98161
23597,98177
23607,98194
23617,98212
23628,98226
23638,98245
23648,98257
23658,98267
23668,98278
23678,98288
23688,98302
23698,98314
23709,98329
23719,98340
23729,98348
23739,98360
23749,98370
23759,98374
23769,98378
23779,98376
23789,98359
23799,98314
23809,98234
23819,98121
23830,97981
23840,97835
23851,97720
23861,97649
23871,97616
23881,97612
23891,97628
23901,97655
23911,97690
23921,97737
23931,97781
23941,97820
23951,97853
23962,97886
23972,97912
23982,97932
23992,97955
24002,97981
24012,98003
24022,98034
24032,98060
24042,98080
24052,98095
24062,98112
24073,98116
24084,98124
24094,98119
24104,98120
24114,98114
24124,98122
24134,98123
24144,98127
24154,98136
24164,98145
24174,98159
24184,98171
24194,98184
24204,98201
24214,98216
24225,98224
24235,98246
24245,98257
24255,98269
24265,98285
24275,98294
24285,98313
24296,98335
24306,98353
24316,98378
24326,98399
24337,98417
24347,98444
24357,98467
24367,98491
24377,98506
24387,98526
24397,98532
24407,98522
24417,98477
24427,98408
24437,98331
24447,98245
24458,98168
24468,98110
24478,98086
24488,98090
24498,98108
24508,98142
24519,98180
24529,98218
24539,98253
24549,98288
24559,98310
24569,98328
24579,98351
24590,98362
24600,98374
24610,98393
24620,98411
24630,98425
24640,98441
24650,98455
24660,98471
24670,98480
24680,98485
24690,98489
24700,98479
24711,98471
24721,98466
24731,98459
24742,98451
24752,98447
24762,98449
24772,98451
24782,98450
24792,98455
24802,98458
24812,98465
24822,98470
24832,98478
24843,98484
24853,98492
24863,98499
24873,98508
24883,98519
24893,98524
24903,98528
24913,98534
24923,98545
24933,98547
24943,98552
24953,98557
24965,98564
24975,98569
24985,98566
24995,98569
25005,98569
25015,98564
25025,98544
25035,98498
25045,98428
25055,98326
25065,98208
25075,98073
25085,97958
25096,97869
25106,97814
25116,97805
25126,97818
25136,97854
25146,97900
25156,97952
25166,98000
25176,98035
25187,98071
25197,98094
25207,98112
25218,98122
25228,98142
25238,98157
25248,98179
25258,98201
25268,98228
25278,98247
25288,98258
25298,98265
25308,98268
25318,98272
25329,98269
25339,98269
25349,98269
25359,98267
25369,98267
25379,98277
25389,98286
25399,98291
25410,98304
25420,98319
25430,98331
25440,98342
25450,98348
25460,98368
25471,98372
25481,98385
25491,98401
25501,98412
25511,98426
25521,98438
25531,98449
25541,98466
25551,98480
25561,98490
25571,98503
25581,98510
25592,98522
25602,98531
25612,98539
25622,98551
25633,98552
25643,98550
25653,98536
25663,98496
25673,98439
25683,98346
25693,98231
25703,98105
25714,97988
25724,97902
25734,97855
25744,97849
25754,97864
25764,97899
25774,97948
25784,97996
25794,98048
25804,98089
25814,98124
25824,98151
25834,98166
25846,98184
25856,98197
25866,98214
25876,98234
25886,98256
25896,98277
25906,98289
25916,98303
25926,98304
25936,98311
25946,98313
25956,98310
25967,98309
25977,98309
25987,98304
25997,98308
26007,98310
26017,98315
26027,98322
26037,98327
26047,98336
26057,98353
26067,98358
26078,98369
26089,98385
26099,98397
26109,98407
26119,98421
26129,98437
26139,98449
26149,98461
26159,98476
26169,98491
26179,98502
26189,98508
26199,98515
26210,98524
26220,98532
26230,98541
26240,98544
26250,98552
26260,98556
26270,98551
26280,98525
26290,98477
26301,98402
26311,98302
26321,98191
26332,98066
26342,97959
26352,97887
26362,97851
26372,97846
26382,97869
26392,97901
26402,97943
26412,97990
26422,98029
26432,98071
26442,98098
26453,98122
26463,98142
26473,98161
26483,98184
26493,98212
26503,98227
26513,98244
26524,98267
26534,98272
26544,98280
26554,98283
26564,98280
26575,98276
26585,98270
26595,98265
26605,98264
26615,98264
26625,98264
26635,98270
26645,98278
26655,98289
26665,98301
26675,98307
26685,98326
26695,98336
26705,98345
26716,98365
26726,98374
26737,98387
26747,98396
26757,98411
26767,98428
26777,98437
26787,98452
26797,98462
26807,98475
26817,98486
26827,98492
26837,98505
26848,98514
26858,98518
26868,98523
26878,98510
26888,98489
26898,98432
26908,98349
26918,98237
26928,98108
26938,97982
26948,97884
26958,97819
26970,97797
26980,97806
26990,97824
27000,97859
27010,97900
27020,97942
27030,97988
27040,98027
27050,98066
27060,98093
27070,98117
27080,98134
27090,98152
27101,98177
27111,98198
27121,98225
27131,98245
27141,98256
27151,98264
27161,98272
27171,98274
27181,98268
27192,98267
27202,98269
27212,98263
27222,98265
27233,98271
27243,98270
27253,98275
27263,98280
27273,98294
27283,98299
27293,98312
27303,98330
27313,98341
27323,98359
27333,98373
27343,98392
27353,98402
27364,98415
27374,98428
27384,98439
27394,98449
27404,98459
27415,98468
27425,98477
27435,98489
27445,98502
27455,98508
27465,98518
27475,98520
27486,98517
27496,98495
27506,98439
27516,98360
27526,98246
27536,98115
27546,97971
27556,97856
27566,97789
27576,97755
27586,97746
27596,97758
27606,97791
27617,97824
27627,97871
27638,97909
27648,97948
27658,97985
27668,98009
27678,98036
27688,98060
27698,98089
27708,98107
27718,98137
27728,98164
27739,98188
27749,98202
27759,98220
27769,98228
27779,98233
27789,98231
27799,98239
27809,98235
27819,98233
27829,98229
27839,98230
27850,98234
27859,98236
27871,98246
27881,98251
27891,98265
27901,98276
27911,98292
27921,98312
27931,98322
27941,98334
27951,98351
27961,98364
27971,98370
27981,98391
27992,98400
28002,98409
28012,98418
28022,98435
28032,98449
28042,98460
28052,98470
28062,98477
28072,98485
28083,98489
28093,98489
28103,98474
28114,98431
28124,98359
28134,98253
28144,98115
28154,97967
28164,97844
28174,97762
28184,97720
28194,97706
28204,97709
28214,97733
28224,97766
28234,97804
28245,97846
28255,97884
28265,97921
28275,97953
28285,97978
28295,97998
28305,98017
28316,98038
28326,98064
28336,98091
28346,98118
28356,98136
28367,98145
28376,98156
28387,98156
28397,98154
28407,98155
28417,98157
28427,98148
28437,98152
28447,98150
28457,98150
28467,98155
28477,98158
28487,98177
28497,98190
28507,98200
28518,98216
28528,98228
28539,98245
28549,98261
28559,98279
28569,98294
28579,98316
28589,98331
28599,98350
28609,98363
28619,98381
28629,98388
28640,98406
28650,98419
28660,98429
28670,98438
28680,98451
28690,98455
28700,98461
28710,98464
28720,98448
28730,98404
28740,98335
28750,98228
28761,98083
28772,97923
28782,97801
28792,97721
28802,97684
28812,97673
28822,97674
28832,97696
28842,97731
28852,97764
28862,97807
28872,97846
28882,97877
28892,97905
28903,97931
28913,97959
28923,97983
28933,98005
28943,98039
28953,98068
28963,98098
28973,98120
28984,98138
28994,98155
29004,98168
29014,98170
29025,98175
29035,98167
29045,98165
29055,98161
29065,98156
29075,98161
29085,98164
29095,98180
29105,98189
29115,98208
29125,98223
29135,98243
29145,98257
29155,98275
29166,98293
29176,98312
29186,98328
29196,98343
29207,98360
29217,98376
29227,98392
29237,98407
29247,98419
29257,98432
29267,98449
29277,98462
29287,98473
29298,98485
29308,98496
29318,98501
29328,98502
29338,98493
29348,98461
29358,98405
29368,98314
29378,98202
29388,98075
29398,97949
29408,97852
29418,97789
29430,97766
29440,97770
29450,97795
29460,97836
29470,97876
29480,97927
29490,97970
29500,98006
29510,98051
29520,98082
29530,98109
29540,98131
29551,98149
29561,98180
29571,98202
29581,98226
29591,98247
29601,98260
29611,98269
29621,98276
29631,98269
29641,98266
29652,98260
29662,98259
29672,98251
29682,98254
29693,98260
29703,98270
29713,98269
29723,98282
29733,98291
29743,98307
29753,98318
29763,98325
29773,98342
29783,98356
29793,98368
29804,98378
29814,98392
29824,98403
29834,98412
29844,98427
29854,98435
29864,98444
29875,98457
29885,98466
29895,98477
29905,98481
29915,98492
29925,98495
29936,98496
29946,98494
29956,98468
29966,98416
29976,98336
29986,98227
29996,98085
30006,97945
30016,97826
30026,97758
30036,97720
30046,97722
30056,97732
30067,97762
30077,97801
30087,97846
30098,97885
30108,97923
30118,97961
30128,97986
30138,98008
30148,98026
30158,98059
30169,98081
30178,98115
30189,98135
30199,98157
30209,98177
30219,98188
30229,98196
30239,98196
30249,98194
30259,98186
30269,98188
30279,98182
30289,98183
30299,98183
30310,98190
30321,98196
30331,98208
30341,98216
30351,98236
30361,98250
30371,98271
30381,98286
30391,98302
30401,98317
30411,98338
30421,98357
30432,98368
30442,98385
30452,98399
30462,98411
30472,98429
30482,98433
30492,98446
30502,98451
30512,98461
30522,98468
30533,98473
30543,98470
30554,98453
30564,98409
30574,98333
30584,98229
30594,98093
30604,97939
30614,97824
30624,97748
30634,97708
30644,97698
30654,97708
30664,97734
30674,97769
30685,97805
30695,97846
30705,97887
30715,97927
30725,97957
30735,97975
30745,98002
30755,98024
30766,98051
30776,98073
30786,98097
30796,98119
30806,98139
30816,98161
30827,98166
30837,98176
30847,98175
30857,98171
30867,98166
30877,98162
30887,98158
30897,98162
30907,98161
30917,98171
30927,98177
30937,98187
30947,98197
30958,98213
30968,98223
30978,98242
30989,98256
30999,98275
31009,98292
31019,98306
31029,98322
31039,98337
31049,98354
31059,98367
31070,98376
31080,98391
31090,98397
31100,98409
31110,98420
31120,98430
31130,98439
31140,98440
31150,98438
31160,98416
31170,98372
31180,98288
31190,98170
31202,98005
31212,97854
31222,97736
31232,97675
31242,97637
31252,97622
31262,97632
31272,97649
31282,97676
31292,97711
31302,97738
31312,97772
31322,97800
31333,97825
31343,97846
31353,97862
31363,97883
31373,97912
31383,97941
31393,97974
31403,98002
31413,98031
31424,98052
31434,98060
31444,98069
31454,98076
31465,98071
31475,98074
31485,98070
31495,98063
31505,98065
31515,98074
31525,98080
31535,98091
31545,98106
31555,98123
31565,98140
31575,98160
31585,98179
31596,98200
31606,98214
31616,98231
31626,98251
31636,98263
31647,98282
31657,98298
31667,98308
31677,98329
31687,98343
31697,98355
31707,98374
31717,98382
31728,98396
31738,98400
31748,98414
31758,98413
31768,98403
31778,98382
31788,98331
31798,98242
31808,98118
31818,97962
31828,97819
31838,97713
31849,97649
31859,97612
31869,97599
31880,97612
31890,97634
31900,97667
31910,97705
31920,97743
31930,97782
31940,97820
31950,97844
31960,97862
31971,97885
31981,97907
31991,97929
32001,97952
32011,97987
32021,98010
32031,98040
32041,98054
32051,98065
32061,98073
32071,98077
32081,98077
32092,98070
32103,98064
32113,98067
32123,98063
32133,98065
32143,98070
32153,98080
32163,98089
32173,98100
32183,98118
32193,98133
32203,98152
32213,98172
32223,98191
32234,98206
32244,98225
32254,98243
32264,98260
32274,98275
32284,98292
32294,98311
32305,98318
32315,98341
32325,98348
32335,98360
32345,98371
32355,98379
32366,98393
32376,98403
32386,98410
32396,98400
32406,98365
32416,98300
32427,98207
32436,98078
32446,97921
32456,97798
32466,97710
32476,97661
32487,97647
32497,97651
32507,97677
32517,97725
32527,97775
32538,97837
32548,97896
32558,97944
32568,97996
32578,98029
32588,98062
32598,98087
32608,98118
32619,98151
32629,98181
32639,98206
32649,98222
32659,98240
32669,98252
32679,98257
32689,98256
32699,98260
32709,98256
32719,98260
32729,98257
32739,98261
32750,98264
32761,98276
32771,98283
32781,98289
32791,98306
32801,98313
32811,98329
32821,98342
32831,98361
32841,98373
32851,98390
32861,98396
32872,98413
32882,98426
32892,98439
32902,98452
32912,98465
32922,98480
32932,98493
32942,98505
32952,98512
32962,98520
32972,98529
32983,98540
32994,98541
33004,98540
33014,98528
33024,98500
33034,98436
33044,98352
33054,98248
33064,98132
33074,98020
33084,97926
33094,97875
33104,97854
33114,97862
33125,97892
33135,97936
33145,97992
33155,98047
33165,98091
33175,98132
33185,98161
33195,98181
33206,98200
33216,98221
33226,98237
33236,98261
33246,98284
33256,98295
33266,98310
33277,98313
33287,98322
33297,98325
33307,98322
33317,98313
33327,98306
33337,98301
33347,98296
33357,98298
33367,98300
33377,98308
33388,98316
33398,98327
33408,98339
33418,98351
33429,98362
33439,98379
33449,98391
33459,98399
33469,98415
33479,98435
33489,98446
33499,98459
33509,98474
33520,98487
33530,98498
33540,98509
33550,98517
33560,98531
33570,98534
33580,98543
33590,98547
33600,98555
33610,98544
33620,98530
33630,98481
33641,98403
33652,98300
33662,98172
33672,98038
33682,97924
33692,97846
33702,97802
33712,97791
33722,97804
33732,97831
33742,97866
33752,97902
33762,97944
33773,97975
33783,97999
33793,98027
33803,98053
33813,98073
33823,98097
33833,98123
33843,98153
33853,98182
33863,98202
33874,98221
33884,98236
33894,98248
33905,98254
33915,98261
33925,98263
33935,98259
33945,98263
33955,98263
33965,98257
33975,98258
33985,98266
33995,98272
34005,98278
34015,98289
34025,98298
34036,98317
34046,98330
34056,98346
34066,98362
34076,98377
34086,98397
34097,98414
34107,98425
34117,98440
34127,98450
34137,98461
34147,98468
34157,98483
34168,98487
34178,98502
34188,98513
34198,98517
34208,98526
34218,98525
34228,98511
34238,98466
34248,98397
34258,98293
34268,98159
34278,98008
34289,97872
34299,97783
34309,97736
34319,97719
34330,97718
34340,97741
34350,97773
34360,97814
34370,97854
34380,97902
34390,97937
34400,97969
34410,97990
34421,98009
34431,98033
34441,98058
34451,98085
34461,98113
34471,98140
34481,98164
34491,98181
34501,98195
34511,98208
34521,98210
34531,98212
34542,98209
34553,98203
34563,98202
34573,98202
34583,98203
34593,98205
34603,98212
34613,98221
34623,98234
34633,98249
34643,98262
34653,98278
34663,98293
34674,98313
34684,98331
34694,98347
34704,98364
34714,98380
34724,98397
34734,98406
34744,98424
34754,98432
34764,98446
34775,98453
34785,98465
34796,98478
34806,98489
34816,98493
34826,98495
34836,98490
34846,98478
34856,98428
34866,98352
34876,98244
34886,98107
34896,97951
34907,97829
34917,97747
34927,97712
34937,97702
34947,97708
34957,97724
34967,97755
34977,97792
34987,97836
34998,97884
35008,97923
35018,97962
35028,97985
35038,98011
35049,98027
35059,98055
35069,98083
35079,98105
35089,98130
35099,98145
35109,98163
35119,98178
35129,98177
35139,98179
35149,98178
35160,98165
35170,98147
35180,98128
35190,98108
35200,98094
35210,98088
35221,98091
35231,98105
35241,98123
35251,98141
35261,98161
35271,98180
35282,98196
35292,98217
35302,98237
35312,98257
35322,98269
35332,98289
35342,98304
35352,98316
35362,98332
35372,98339
35382,98353
35392,98367
35402,98379
35413,98393
35423,98408
35433,98416
35444,98419
35454,98416
35464,98394
35474,98342
35484,98258
35494,98128
35504,97957
35514,97819
35524,97712
35535,97648
35545,97614
35555,97600
35565,97615
35575,97635
35585,97666
35595,97701
35605,97735
35615,97757
35625,97790
35635,97813
35645,97838
35655,97860
35667,97884
35677,97916
35687,97949
35697,97981
35707,98016
35717,98048
35727,98063
35737,98077
35747,98083
35757,98092
35767,98086
35777,98085
35787,98082
35798,98072
35808,98070
35818,98070
35828,98080
35838,98087
35848,98099
35858,98107
35868,98127
35878,98150
35889,98175
35899,98197
35909,98220
35920,98245
35930,98263
35940,98278
35950,98287
35960,98299
35970,98312
35980,98329
35990,98345
36000,98363
36010,98377
36020,98393
36030,98407
36041,98414
36051,98433
36061,98428
36071,98429
36081,98411
36091,98363
36102,98280
36112,98167
36122,98025
36132,97872
36142,97755
36152,97676
36162,97640
36173,97629
36183,97636
36193,97663
36203,97703
36213,97744
36223,97790
36233,97828
36243,97868
36253,97902
36263,97932
36273,97959
36284,97995
36294,98024
36304,98059
36314,98089
36325,98103
36335,98120
36345,98125
36355,98128
36365,98127
36375,98121
36385,98113
36395,98108
36406,98102
36415,98107
36426,98109
36436,98118
36446,98120
36456,98135
36466,98151
36476,98167
36486,98189
36496,98208
36506,98226
36516,98248
36526,98268
36537,98291
36547,98304
36558,98322
36568,98341
36578,98356
36588,98373
36598,98389
36608,98403
36618,98408
36628,98420
36638,98430
36648,98441
36658,98450
36668,98451
36679,98437
36689,98404
36699,98334
36709,98234
36719,98099
36729,97935
36739,97800
36749,97711
36759,97661
36769,97639
36780,97643
36791,97656
36800,97683
36811,97720
36821,97762
36831,97807
36841,97841
36851,97877
36861,97905
36871,97928
36881,97947
36891,97973
36901,97996
36911,98024
36922,98041
36932,98059
36942,98068
36952,98065
36962,98055
36972,98040
36982,98020
36993,97987
37003,97969
37013,97947
37023,97945
37033,97944
37043,97947
37054,97953
37064,97958
37074,97971
37084,97989
37094,98004
37104,98023
37114,98037
37124,98056
37134,98084
37144,98108
37154,98138
37164,98164
37174,98183
37185,98207
37195,98224
37205,98243
37216,98262
37226,98278
37236,98292
37246,98310
37256,98314
37266,98326
37276,98324
37286,98310
37296,98266
37306,98173
37317,98041
37327,97885
37337,97745
37347,97643
37357,97578
37367,97533
37377,97521
37387,97517
37397,97530
37407,97550
37417,97576
37427,97597
37439,97619
37449,97640
37459,97654
37469,97663
37479,97671
37489,97679
37499,97688
37509,97707
37519,97728
37529,97746
37539,97763
37549,97777
37560,97792
37570,97802
37580,97814
37590,97820
37600,97816
37610,97815
37620,97819
37630,97818
37640,97821
37650,97827
37661,97827
37671,97839
37682,97848
37692,97859
37702,97881
37712,97892
37722,97919
37732,97942
37742,97972
37752,98000
37762,98028
37772,98055
37782,98081
37792,98106
37802,98132
37813,98160
37823,98182
37833,98209
37843,98233
37853,98252
37863,98263
37873,98276
37884,98285
37894,98275
37904,98242
37915,98165
37924,98045
37935,97891
37945,97745
37955,97632
37965,97556
37975,97512
37985,97491
37995,97483
38005,97501
38015,97527
38025,97559
38035,97596
38046,97626
38056,97651
38066,97671
38076,97685
38086,97700
38097,97712
38107,97728
38117,97759
38127,97793
38137,97823
38147,97854
38157,97871
38167,97882
38178,97880
38188,97871
38198,97844
38208,97825
38218,97812
38228,97807
38238,97802
38248,97812
38258,97813
38268,97822
38278,97832
38288,97851
38298,97865
38309,97884
38320,97906
38330,97934
38340,97963
38350,97995
38360,98027
38370,98053
38380,98079
38390,98102
38400,98127
38410,98147
38421,98164
38431,98175
38441,98194
38451,98212
38461,98231
38471,98243
38481,98254
38491,98256
38501,98262
38511,98249
38521,98212
38531,98134
38541,98010
38553,97850
38563,97703
38573,97600
38583,97531
38593,97488
38603,97464
38613,97475
38623,97484
38633,97504
38643,97533
38653,97560
38663,97583
38673,97614
38684,97637
38694,97660
38704,97672
38714,97697
38724,97720
38734,97747
38744,97785
38754,97815
38764,97837
38775,97856
38785,97870
38796,97877
38806,97874
38816,97869
38826,97862
38836,97851
38846,97846
38856,97843
38866,97841
38876,97846
38886,97858
38896,97876
38907,97891
38917,97901
38927,97922
38937,97940
38947,97958
38957,97978
38967,97994
38977,98021
38988,98041
38998,98069
39008,98099
39018,98119
39028,98140
39039,98162
39049,98180
39059,98203
39069,98213
39079,98233
39089,98246
39099,98259
39109,98272
39119,98278
39129,98275
39139,98258
39149,98201
39159,98107
39170,97968
39180,97815
39190,97680
39200,97583
39210,97526
39221,97495
39231,97485
39241,97503
39251,97525
39261,97552
39271,97588
39282,97626
39292,97659
39302,97698
39312,97730
39322,97760
39332,97787
39342,97813
39352,97849
39362,97882
39372,97915
39382,97946
39392,97964
39403,97979
39413,97987
39423,97997
39433,97992
39444,97995
39454,97990
39464,97990
39474,97992
39484,98001
39494,98010
39504,98024
39514,98036
39525,98048
39535,98066
39545,98081
39555,98104
39565,98124
39575,98146
39585,98171
39595,98197
39605,98215
39615,98230
39625,98247
39635,98267
39645,98276
39655,98295
39667,98308
39677,98326
39687,98333
39697,98347
39707,98360
39717,98372
39727,98376
39737,98380
39747,98375
39757,98346
39767,98286
39778,98196
39788,98071
39798,97922
39808,97787
39818,97690
39828,97629
39838,97613
39848,97609
39858,97624
39868,97659
39878,97698
39889,97734
39899,97773
39910,97816
39920,97846
39930,97883
39940,97908
39950,97927
39960,97961
39970,97986
39980,98016
39990,98045
40000,98078
40010,98096
40020,98104
40031,98108
40041,98115
40051,98110
40061,98101
40071,98095
40081,98093
40091,98090
40101,98095
40112,98098
40122,98108
40132,98121
40142,98132
40153,98155
40163,98170
40173,98195
40183,98215
40193,98236
40203,98252
40213,98274
40223,98286
40233,98298
40243,98309
40253,98323
40263,98341
40273,98355
40283,98368
40294,98384
40304,98396
40314,98408
40324,98414
40335,98420
40345,98416
40355,98407
40365,98369
40375,98306
40385,98200
40395,98064
40405,97911
40416,97777
40426,97678
40436,97626
40446,97603
40456,97604
40466,97615
40476,97641
40486,97673
40496,97709
40506,97750
40516,97784
40526,97812
40537,97839
40548,97856
40558,97876
40568,97904
40578,97928
40588,97967
40598,98004
40608,98034
40618,98054
40628,98071
40638,98086
40648,98091
40658,98091
40668,98095
40679,98087
40689,98089
40699,98084
40709,98096
40719,98103
40729,98113
40739,98130
40749,98147
40759,98165
40769,98179
40780,98200
40790,98221
40801,98236
40811,98255
40821,98276
40831,98290
40841,98306
40851,98328
40861,98344
40871,98356
40881,98366
40891,98379
40901,98398
40911,98407
40922,98421
40932,98430
40942,98437
40952,98442
40962,98436
40972,98419
40982,98369
40992,98283
41003,98161
41013,98003
41023,97838
41033,97715
41044,97632
41054,97588
41064,97570
41074,97571
41084,97586
41094,97616
41104,97648
41114,97685
41124,97717
41134,97747
41144,97766
41154,97780
41164,97795
41175,97814
41185,97832
41195,97856
41205,97887
41215,97918
41226,97944
41236,97968
41246,97994
41256,98007
41266,98019
41276,98027
41287,98021
41297,98019
41307,98010
41317,98019
41327,98021
41337,98031
41347,98045
41357,98055
41367,98078
41377,98104
41387,98125
41397,98153
41407,98175
41418,98201
41428,98224
41438,98246
41449,98263
41459,98285
41469,98306
41479,98321
41489,98342
41499,98358
41509,98375
41519,98390
41529,98406
41539,98422
41550,98435
41560,98446
41570,98456
41580,98460
41590,98456
41600,98432
41610,98383
41620,98291
41630,98179
41640,98027
41650,97877
41660,97761
41671,97684
41682,97650
41692,97649
41702,97664
41712,97696
41722,97742
41732,97793
41742,97838
41752,97886
41762,97920
41772,97949
41782,97971
41793,97998
41803,98021
41813,98053
41823,98086
41833,98118
41843,98148
41853,98167
41863,98181
41873,98196
41883,98199
41894,98200
41904,98202
41915,98202
41924,98196
41935,98192
41945,98195
41955,98197
41965,98207
41975,98223
41985,98233
41995,98248
42005,98255
42015,98274
42025,98285
42035,98299
42045,98315
42055,98325
42066,98336
42076,98352
42086,98368
42096,98384
42107,98395
42117,98409
42127,98420
42137,98440
42147,98450
42157,98465
42167,98474
42177,98485
42188,98498
42198,98507
42208,98509
42218,98505
42228,98482
42238,98438
42248,98363
42258,98264
42268,98143
42278,98010
42288,97887
42298,97794
42308,97749
42319,97732
42329,97753
42340,97782
42350,97833
42360,97885
42370,97931
42380,97980
42390,98015
42400,98047
42410,98075
42420,98096
42430,98119
42441,98146
42451,98164
42461,98189
42471,98209
42481,98224
42491,98234
42501,98239
42511,98239
42521,98234
42531,98235
42541,98228
42551,98226
42563,98223
42573,98222
42583,98233
42593,98239
42603,98255
42613,98266
42623,98281
42633,98296
42643,98312
42653,98324
42663,98340
42673,98353
42683,98367
42694,98382
42704,98394
42714,98408
42724,98422
42734,98430
42744,98445
42754,98460
42764,98471
42774,98481
42785,98493
42795,98500
42805,98514
42816,98520
42826,98522
42836,98514
42846,98488
42856,98430
42866,98349
42876,98246
42886,98118
42896,97991
42906,97886
42916,97809
42926,97781
42936,97777
42946,97797
42956,97830
42967,97882
42977,97931
42987,97979
42997,98013
43008,98046
43018,98077
43028,98097
43038,98115
43048,98141
43058,98161
43069,98187
43079,98213
43089,98235
43099,98245
43109,98253
43119,98260
43129,98264
43139,98257
43149,98254
43159,98250
43169,98248
43179,98245
43189,98246
43200,98256
43210,98256
43220,98271
43231,98284
43241,98300
43251,98315
43261,98328
43271,98343
43281,98358
43291,98376
43301,98388
43311,98407
43322,98420
43332,98428
43342,98442
43352,98462
43362,98477
43372,98486
43382,98503
43392,98514
43402,98524
43412,98531
43422,98542
43432,98547
43442,98544
43454,98526
43464,98484
43474,98415
43484,98317
43494,98201
43504,98071
43514,97943
43524,97854
43534,97807
43544,97790
43554,97800
43564,97836
43575,97876
43585,97928
43595,97975
43605,98020
43615,98058
43625,98081
43635,98104
43645,98117
43655,98141
43665,98165
43676,98192
43687,98218
43696,98238
43707,98256
43717,98276
43727,98284
43737,98289
43747,98288
43757,98287
43767,98283
43777,98281
43787,98275
43797,98271
43807,98268
43818,98272
43828,98284
43838,98291
43848,98301
43858,98315
43868,98329
43878,98344
43888,98352
43898,98373
43909,98388
43919,98401
43929,98412
43939,98424
43949,98439
43960,98449
43970,98462
43980,98473
43990,98486
44000,98495
44010,98509
44020,98526
44030,98529
44040,98536
44050,98543
44060,98539
44070,98522
44081,98478
44091,98403
44101,98302
44111,98165
44121,98004
44132,97859
44142,97759
44152,97710
44162,97687
44172,97692
44182,97713
44192,97749
44202,97785
44213,97831
44223,97874
44233,97906
44243,97943
44253,97962
44263,97981
44273,98000
44283,98023
44293,98057
44303,98091
44313,98124
44323,98150
44333,98172
44344,98186
44355,98193
44365,98198
44375,98192
44385,98181
44395,98176
44405,98158
44415,98143
44425,98137
44435,98136
44445,98142
44455,98152
44466,98168
44476,98187
44486,98210
44496,98220
44506,98237
44516,98261
44526,98276
44536,98297
44546,98315
44556,98324
44566,98338
44576,98347
44587,98358
44598,98367
44607,98380
44618,98390
44628,98407
44638,98418
44648,98432
44658,98443
44668,98460
44678,98468
44688,98474
44698,98468
44708,98442
44718,98379
44728,98289
44739,98158
44749,98009
44759,97858
44769,97757
44779,97698
44789,97671
44799,97673
44810,97691
44820,97723
44830,97769
44840,97811
44850,97870
44860,97931
44870,97980
44881,98023
44891,98056
44901,98086
44911,98116
44921,98151
44931,98183
44941,98219
44951,98246
44961,98276
44971,98293
44981,98308
44992,98318
45002,98319
45012,98314
45022,98313
45033,98310
45043,98314
45053,98317
45063,98323
45073,98332
45083,98337
45093,98343
45103,98352
45113,98362
45123,98367
45133,98370
45144,98373
45154,98382
45164,98395
45174,98397
45184,98400
45194,98419
45204,98427
45214,98437
45224,98444
45234,98457
45244,98469
45255,98476
45265,98486
45276,98494
45286,98503
45296,98515
45306,98520
45316,98525
45326,98530
45336,98522
45346,98487
45356,98431
45366,98349
45376,98241
45386,98124
45397,97996
45407,97893
45417,97840
45427,97818
45437,97831
45447,97859
45457,97900
45467,97947
45478,97998
45488,98040
45498,98083
45508,98109
45518,98129
45529,98151
45539,98162
45549,98186
45559,98210
45569,98230
45579,98251
45589,98267
45599,98283
45609,98287
45619,98288
45629,98285
45639,98279
45650,98271
45659,98266
45670,98261
45680,98262
45690,98262
45701,98269
45711,98275
45721,98293
45731,98302
45741,98321
45751,98336
45761,98357
45771,98374
45781,98388
45792,98405
45802,98427
45812,98445
45822,98462
45832,98474
45842,98487
45852,98500
45862,98517
45872,98529
45882,98548
45892,98561
45902,98575
45912,98587
45923,98595
45933,98599
45944,98604
45954,98596
45964,98569
45974,98515
45984,98442
45994,98340
46004,98218
46014,98082
46024,97969
46034,97894
46044,97858
46054,97852
46064,97874
46075,97904
46085,97945
46095,97992
46105,98037
46115,98080
46125,98113
46135,98144
46145,98167
46156,98185
46166,98208
46176,98232
46186,98260
46196,98294
46206,98308
46217,98329
46227,98337
46237,98341
46247,98347
46257,98347
46267,98347
46277,98342
46287,98339
46297,98337
46307,98344
46317,98346
46327,98360
46337,98366
46348,98379
46358,98390
46369,98400
46379,98408
46389,98427
46399,98435
46409,98457
46419,98471
46429,98487
46439,98499
46449,98510
46459,98525
46469,98537
46480,98549
46490,98563
46500,98572
46510,98585
46520,98589
46530,98598
46540,98608
46550,98611
46560,98613
46570,98607
46580,98581
46590,98526
46601,98450
46611,98349
46621,98222
46632,98091
46642,97977
46652,97900
46662,97856
46672,97838
46682,97850
46692,97861
46702,97878
46712,97898
46722,97919
46732,97941
46743,97952
46753,97964
46763,97969
46773,97975
46783,97984
46793,97999
46803,98020
46813,98040
46824,98068
46834,98100
46844,98117
46854,98129
46864,98142
46874,98146
46884,98144
46895,98149
46905,98146
46915,98142
46925,98142
46935,98149
46945,98152
46955,98158
46965,98165
46975,98179
46985,98185
46995,98199
47005,98207
47015,98224
47026,98240
47036,98262
47047,98286
47057,98304
47067,98326
47077,98345
47087,98366
47097,98385
47107,98404
47117,98417
47127,98437
47137,98458
47147,98467
47158,98476
47168,98483
47178,98490
47188,98485
47198,98459
47208,98411
47218,98314
47228,98180
47238,98008
47248,97854
47259,97737
47269,97660
47279,97611
47289,97587
47300,97579
47310,97576
47320,97584
47330,97595
47340,97611
47350,97628
47360,97643
47370,97653
47380,97661
47390,97672
47400,97685
47410,97700
47420,97731
47431,97768
47441,97806
47451,97839
47461,97868
47471,97897
47482,97920
47492,97938
47502,97952
47512,97968
47522,97972
47532,97985
47542,97990
47553,98001
47563,98029
47573,98054
47583,98086
47593,98110
47603,98148
47613,98179
47623,98215
47633,98246
47643,98276
47653,98300
47663,98321
47673,98347
47683,98373
47693,98397
47705,98422
47715,98439
47725,98452
47735,98469
47745,98482
47755,98493
47765,98498
47775,98509
47785,98514
47795,98515
47805,98517
47815,98506
47825,98482
47835,98420
47846,98331
47856,98195
47866,98038
47876,97893
47886,97793
47896,97730
47906,97704
47916,97698
47927,97711
47937,97746
47947,97775
47957,97820
47967,97860
47978,97898
47988,97934
47998,97967
48008,97992
48018,98023
48028,98053
48038,98088
48048,98122
48058,98159
48068,98190
48078,98215
48088,98225
48098,98239
48108,98242
48118,98246
48129,98252
48140,98254
48150,98252
48160,98257
48170,98270
48180,98280
48190,98298
48200,98310
48210,98333
48220,98347
48230,98369
48240,98382
48250,98398
48261,98414
48271,98433
48281,98456
48291,98469
48301,98486
48311,98501
48321,98520
48331,98535
48341,98556
48351,98578
48362,98591
48373,98609
48382,98624
48392,98632
48403,98644
48413,98645
48423,98658
48433,98665
48443,98663
48453,98654
48463,98613
48473,98544
48483,98458
48493,98343
48503,98222
48514,98098
48523,98002
48534,97936
48544,97914
48554,97925
48564,97957
48574,97996
48585,98050
48595,98101
48605,98147
48615,98190
48625,98217
48635,98239
48645,98256
48655,98273
48666,98292
48676,98307
48686,98327
48696,98346
48706,98363
48716,98381
48726,98386
48736,98391
48746,98385
48756,98384
48766,98382
48776,98376
48786,98373
48798,98369
48808,98377
48818,98380
48828,98389
48838,98395
48848,98411
48858,98424
48868,98440
48878,98450
48888,98466
48898,98477
48908,98495
48918,98508
48929,98524
48938,98534
48949,98549
48959,98557
48969,98566
48979,98581
48989,98591
48999,98606
49009,98618
49020,98623
49030,98627
49040,98632
49050,98641
49060,98640
49071,98642
49081,98626
49091,98594
49101,98527
49111,98443
49121,98330
49131,98198
49141,98066
49151,97964
49161,97903
49171,97880
49181,97888
49191,97911
49201,97952
49211,98000
49222,98052
49232,98097
49243,98135
49253,98172
49263,98199
49273,98224
49283,98250
49293,98269
49303,98295
49313,98328
49323,98344
49333,98366
49343,98385
49354,98395
49364,98396
49374,98399
49384,98393
49394,98390
49404,98391
49414,98389
49424,98396
49434,98400
49444,98414
49454,98420
49465,98430
49475,98440
49486,98453
49496,98471
49506,98486
49516,98506
49526,98518
49536,98530
49546,98552
49556,98565
49566,98582
49576,98593
49586,98606
49596,98616
49607,98631
49616,98638
49627,98651
49637,98661
49647,98668
49657,98677
49667,98681
49677,98687
49688,98689
49698,98670
49708,98631
49718,98567
49728,98472
49738,98357
49748,98236
49759,98110
49769,98013
49779,97953
49789,97933
49799,97941
49809,97972
49819,98014
49829,98057
49839,98104
49849,98140
49859,98170
49869,98195
49879,98214
49889,98230
49900,98250
49911,98265
49921,98291
49931,98315
49941,98338
49951,98352
49961,98368
49971,98382
49981,98389
49991,98392
50001,98392
50011,98390
50021,98390
50031,98392
50042,98389
50052,98390
50062,98395
50072,98410
50082,98423
50092,98433
50102,98442
50112,98456
50122,98466
50133,98477
50143,98491
50153,98505
50163,98522
50174,98539
50184,98558
50194,98572
50204,98586
50214,98601
50224,98615
50234,98621
50244,98632
50254,98640
50264,98650
50274,98666
50284,98673
50294,98681
50304,98681
50314,98682
50325,98664
50335,98625
50345,98547
50356,98458
50366,98339
50376,98212
50386,98077
50396,97986
50406,97923
50416,97902
50426,97907
50436,97929
50446,97970
50456,98010
50467,98053
50477,98089
50487,98119
50497,98134
50507,98147
50517,98146
50527,98155
50537,98172
50547,98198
50557,98224
50567,98257
50578,98286
50588,98305
50599,98322
50609,98330
50619,98335
50629,98338
50639,98342
50649,98342
50659,98348
50669,98350
50679,98353
50689,98362
50699,98375
50709,98382
50719,98396
50729,98416
50740,98429
50750,98446
50760,98460
50770,98483
50780,98503
50791,98517
50801,98532
50811,98551
50821,98562
50831,98578
50841,98593
50851,98601
50861,98615
50872,98628
50882,98640
50892,98654
50902,98665
50912,98673
50922,98680
50932,98684
50942,98686
50952,98676
50962,98654
50972,98602
50982,98523
50992,98423
51002,98307
51013,98188
51024,98073
51034,98003
51044,97965
51054,97959
51064,97982
51074,98024
51084,98076
51094,98134
51104,98181
51114,98218
51124,98243
51134,98272
51145,98294
51155,98314
51165,98336
51175,98356
51185,98380
51195,98402
51205,98422
51215,98436
51225,98453
51236,98457
51246,98468
51256,98473
51267,98469
51277,98471
51287,98468
51297,98469
51307,98475
51317,98477
51327,98487
51337,98496
51347,98503
51357,98516
51367,98529
51377,98544
51387,98559
51397,98570
51408,98582
51418,98593
51428,98608
51438,98623
51449,98630
51459,98645
51469,98660
51479,98666
51489,98677
51499,98687
51509,98695
51519,98706
51530,98713
51540,98730
51550,98734
51560,98740
51570,98740
51580,98742
51590,98731
51600,98691
51610,98632
51620,98559
51630,98457
51640,98355
51650,98261
51660,98180
51672,98126
51682,98100
51692,98113
51702,98141
51712,98181
51722,98237
51732,98286
51742,98328
51752,98358
51762,98386
51772,98406
51782,98422
51792,98443
51803,98456
51813,98485
51823,98501
51833,98526
51843,98537
51853,98555
51863,98563
51873,98566
51883,98570
51894,98567
51904,98562
51914,98559
51924,98559
51934,98561
51945,98562
51955,98563
51965,98572
51975,98571
51985,98578
51995,98587
52005,98597
52015,98608
52025,98617
52035,98635
52045,98645
52055,98659
52065,98663
52076,98683
52086,98694
52096,98707
52106,98717
52117,98727
52127,98736
52137,98746
52147,98757
52157,98766
52167,98772
52177,98778
52187,98781
52197,98787
52208,98784
52218,98780
52228,98742
52238,98695
52248,98614
52258,98520
52268,98425
52278,98336
52288,98262
52298,98223
52308,98213
52318,98221
52328,98252
52340,98284
52350,98329
52360,98362
52370,98397
52380,98423
52390,98437
52400,98457
52410,98471
52420,98485
52430,98505
52440,98517
52450,98535
52460,98553
52470,98567
52481,98578
52491,98577
52501,98580
52511,98581
52521,98575
52531,98571
52541,98565
52552,98562
52562,98562
52572,98570
52582,98570
52592,98574
52602,98585
52613,98596
52623,98604
52633,98619
52643,98633
52653,98648
52663,98659
52673,98670
52683,98689
52693,98700
52703,98714
52713,98728
52723,98741
52733,98752
52744,98763
52754,98773
52765,98776
52775,98783
52785,98789
52795,98794
52805,98802
52815,98808
52825,98801
52835,98781
52845,98740
52855,98673
52865,98589
52875,98500
52886,98407
52896,98327
52906,98279
52916,98248
52926,98245
52936,98264
52946,98292
52956,98336
52966,98365
52976,98404
52987,98431
52997,98458
53007,98473
53018,98494
53028,98506
53038,98517
53048,98534
53058,98552
53068,98573
53078,98596
53088,98612
53098,98618
53108,98626
53118,98624
53128,98626
53138,98624
53149,98617
53159,98616
53169,98616
53179,98621
53189,98624
53199,98630
53210,98637
53220,98645
53230,98651
53240,98663
53250,98676
53261,98687
53271,98699
53281,98716
53291,98728
53301,98743
53311,98755
53321,98764
53331,98775
53341,98788
53351,98796
53361,98808
53371,98818
53381,98821
53392,98833
53402,98844
53412,98844
53422,98846
53433,98854
53443,98839
53453,98822
53463,98777
53473,98709
53483,98627
53493,98532
53504,98436
53514,98363
53524,98313
53534,98289
53544,98290
53554,98307
53564,98337
53574,98371
53584,98397
53594,98426
53604,98451
53614,98469
53624,98484
53634,98496
53645,98506
53656,98519
53666,98535
53676,98556
53686,98570
53696,98591
53706,98608
53716,98619
53726,98631
53736,98633
53747,98635
53757,98628
53767,98628
53777,98628
53787,98628
53797,98629
53807,98633
53817,98639
53827,98640
53837,98651
53847,98660
53857,98670
53868,98685
53879,98706
53889,98717
53899,98737
53909,98750
53919,98771
53929,98784
53939,98799
53949,98809
53959,98825
53969,98834
53979,98846
53989,98852
53999,98861
54010,98869
54020,98881
54030,98880
54040,98886
54050,98892
54060,98883
54070,98872
54080,98837
54091,98781
54101,98709
54111,98623
54121,98540
54132,98467
54142,98419
54152,98393
54162,98386
54172,98399
54182,98421
54192,98442
54202,98467
54212,98494
54222,98514
54232,98529
54242,98546
54252,98556
54263,98564
54273,98576
54283,98591
54293,98603
54303,98619
54314,98641
54324,98657
54334,98666
54344,98674
54354,98679
54364,98679
54374,98680
54385,98676
54395,98673
54405,98670
54415,98675
54425,98673
54435,98677
54445,98684
54455,98690
54465,98698
54475,98705
54485,98720
54495,98738
54505,98745
54516,98758
54526,98765
54537,98776
54547,98785
54557,98795
54567,98811
54577,98822
54587,98834
54597,98845
54607,98852
54617,98860
54627,98873
54637,98875
54648,98883
54658,98888
54668,98887
54678,98889
54688,98887
54698,98870
54708,98838
54718,98784
54728,98711
54738,98625
54748,98544
54759,98475
54769,98427
54780,98407
54790,98404
54800,98417
54810,98449
54820,98480
54830,98508
54840,98537
54850,98563
54860,98582
54870,98597
54880,98612
54890,98621
54901,98632
54911,98651
54921,98669
54931,98688
54941,98704
54951,98718
54961,98727
54971,98735
54982,98733
54992,98733
55002,98730
55012,98732
55023,98730
55033,98727
55043,98735
55053,98744
55063,98750
55073,98752
55083,98764
55093,98767
55103,98783
55113,98793
55123,98812
55133,98823
55143,98839
55154,98848
55164,98868
55174,98888
55184,98906
55194,98912
55205,98931
55215,98945
55225,98949
55235,98957
55245,98967
55255,98968
55265,98979
55276,98986
55286,98986
55296,98989
55306,98994
55316,98983
55326,98968
55336,98923
55346,98867
55356,98804
55366,98722
55376,98653
55386,98603
55396,98577
55407,98568
55418,98578
55428,98597
55438,98619
55448,98649
55458,98679
55468,98707
55478,98729
55488,98743
55498,98760
55508,98773
55518,98783
55528,98795
55539,98815
55549,98824
55559,98835
55569,98843
55579,98852
55589,98856
55599,98854
55609,98855
55619,98853
55629,98853
55640,98846
55650,98842
55661,98850
55671,98850
55681,98852
55691,98857
55701,98865
55711,98875
55721,98887
55731,98902
55741,98907
55751,98918
55761,98929
55771,98935
55781,98941
55791,98947
55802,98961
55812,98967
55822,98978
55832,98985
55842,98989
55852,98992
55863,98998
55873,99003
55883,99007
55893,99012
55903,99019
55913,99019
55924,99011
55934,98992
55944,98956
55954,98898
55964,98833
55974,98764
55984,98694
55994,98635
56004,98604
56014,98591
56024,98596
56034,98610
56044,98634
56054,98664
56065,98688
56075,98707
56086,98728
56096,98747
56106,98754
56116,98766
56126,98774
56136,98781
56146,98795
56156,98806
56166,98826
56176,98839
56186,98858
56197,98873
56207,98896
56217,98912
56227,98922
56237,98931
56247,98938
56257,98963
56267,98970
56277,98985
56287,98996
56297,99008
56309,99012
56319,99021
56329,99034
56339,99038
56349,99050
56359,99052
56369,99058
56379,99059
56389,99063
56399,99071
56409,99071
56419,99075
56429,99077
56439,99082
56450,99084
56460,99087
56470,99087
56480,99087
56490,99090
56500,99093
56510,99092
56520,99098
56531,99096
56541,99097
56551,99091
56562,99071
56572,99045
56582,98995
56592,98945
56602,98906
56612,98878
56622,98865
56632,98867
56642,98868
56652,98879
56662,98896
56672,98911
56682,98925
56692,98938
56703,98941
56713,98949
56723,98950
56733,98952
56744,98945
56754,98954
56764,98956
56774,98962
56784,98971
56794,98977
56804,98983
56815,98985
56825,98982
56835,98982
56845,98973
56855,98968
56865,98962
56875,98954
56885,98949
56895,98943
56905,98939
56915,98936
56925,98940
56935,98943
56946,98949
56956,98948
56967,98955
56977,98959
56987,98967
56997,98976
57007,98977
57017,98989
57027,98996
57037,99003
57047,99006
57057,99009
57067,99022
57078,99027
57088,99034
57098,99033
57108,99042
57118,99041
57128,99043
57138,99043
57148,99046
57158,99037
57168,99027
57178,99000
57190,98948
57200,98882
57210,98814
57220,98738
57230,98667
57240,98622
57250,98599
57260,98594
57270,98602
57280,98618
57290,98635
57300,98659
57310,98681
57321,98704
57331,98719
57341,98735
57351,98749
57361,98756
57371,98757
57381,98770
57391,98783
57401,98792
57412,98808
57422,98819
57432,98824
57442,98827
57453,98830
57463,98834
57473,98835
57483,98832
57493,98832
57503,98830
57513,98829
57523,98827
57533,98834
57543,98837
57553,98845
57563,98851
57573,98861
57583,98871
57594,98878
57604,98891
57614,98900
57624,98909
57635,98915
57645,98921
57655,98934
57665,98945
57675,98951
57685,98960
57695,98969
57706,98971
57716,98978
57726,98989
57736,98989
57746,98993
57756,98998
57766,99003
57776,99004
57786,99007
57796,99006
57806,98994
57816,98985
57826,98949
57836,98894
57847,98831
57858,98754
57868,98686
57878,98630
57888,98590
57898,98581
57908,98582
57918,98598
57928,98618
57938,98642
57948,98668
57958,98694
57968,98708
57978,98724
57989,98731
57999,98740
58009,98747
58019,98759
58029,98773
58039,98783
58049,98801
58059,98818
58070,98825
58080,98833
58090,98837
58100,98835
58110,98840
58120,98831
58131,98830
58141,98827
58151,98825
58161,98823
58171,98827
58181,98826
58191,98831
58201,98835
58211,98842
58221,98848
58231,98856
58241,98866
58251,98873
58262,98885
58272,98890
58282,98905
58292,98913
58303,98923
58313,98928
58323,98937
58333,98947
58343,98953
58353,98964
58363,98965
58373,98970
58383,98981
58393,98984
58403,98989
58414,98993
58424,98999
58434,98999
58444,99003
58454,98999
58464,98979
58474,98948
58484,98900
58494,98842
58504,98770
58514,98704
58525,98651
58536,98620
58546,98605
58556,98608
58566,98623
58576,98648
58586,98680
58596,98707
58606,98736
58616,98754
58626,98775
58636,98791
58646,98805
58656,98813
58666,98825
58676,98840
58687,98854
58697,98867
58707,98879
58717,98888
58727,98894
58738,98894
58748,98895
58758,98894
58768,98897
58778,98899
58788,98896
58798,98897
58808,98904
58819,98913
58829,98917
58839,98918
58849,98927
58859,98938
58869,98947
58879,98954
58889,98965
58899,98977
58909,98990
58919,98994
58929,99002
58939,99012
58950,99019
58961,99028
58971,99033
58981,99037
58991,99045
59001,99048
59011,99057
59021,99067
59031,99074
59041,99081
59051,99082
59061,99086
59071,99089
59081,99083
59092,99066
59102,99037
59112,98990
59122,98929
59132,98861
59142,98797
59152,98740
59162,98709
59172,98700
59183,98700
59193,98721
59203,98740
59213,98770
59223,98796
59234,98821
59244,98846
59254,98863
59264,98876
59274,98881
59284,98892
59294,98908
59304,98912
59314,98929
59324,98943
59334,98953
59344,98964
59355,98962
59365,98963
59375,98965
59385,98969
59395,98962
59406,98958
59416,98951
59426,98953
59436,98949
59446,98951
59456,98953
59466,98955
59476,98962
59487,98968
59496,98971
59507,98978
59517,98984
59527,98991
59537,98995
59547,99004
59557,99010
59567,99023
59577,99024
59587,99032
59597,99038
59607,99043
59617,99048
59629,99053
59639,99062
59649,99062
59659,99072
59669,99080
59679,99082
59689,99088
59699,99094
59709,99090
59719,99077
59729,99035
59739,98989
59749,98921
59760,98851
59770,98788
59780,98735
59790,98707
59800,98701
59810,98709
59820,98729
59830,98752
59840,98783
59851,98807
59861,98836
59871,98858
59881,98872
59892,98893
59902,98904
59912,98913
59922,98921
59932,98935
59942,98944
59952,98955
59962,98968
59972,98975
59982,98978
59992,98985
END
