8602,97339
8612,97471
8622,97592
8632,97690
8643,97763
8653,97824
8663,97875
8673,97916
8683,97948
8693,97978
8703,98000
8713,98021
8723,98039
8733,98054
8743,98078
8754,98093
8764,98107
8774,98120
8784,98126
8794,98126
8805,98129
8815,98132
8825,98133
8835,98141
8845,98144
8855,98157
8865,98161
8876,98171
8886,98175
8896,98177
8906,98178
8916,98178
8926,98184
8936,98173
8946,98169
8956,98156
8966,98150
8977,98143
8987,98136
8997,98137
9007,98142
9018,98144
9028,98150
9038,98151
9048,98161
9058,98162
9068,98167
9078,98170
9089,98166
9099,98162
9109,98159
9119,98149
9129,98140
9139,98115
9149,98066
9159,98003
9169,97914
9179,97809
9189,97691
9200,97568
9210,97473
9220,97412
9231,97391
9241,97405
9251,97442
9261,97492
9271,97547
9281,97594
9291,97641
9301,97675
9311,97702
9322,97720
9332,97738
9342,97750
9352,97771
9362,97785
9372,97803
9382,97817
9392,97826
9402,97827
9412,97826
9422,97827
9432,97826
9443,97812
9454,97793
9464,97779
9474,97775
9484,97774
9494,97780
9504,97788
9514,97806
9524,97820
9534,97832
9545,97840
9554,97852
9565,97856
9575,97861
9585,97867
9595,97874
9605,97885
9615,97898
9625,97909
9635,97913
9645,97927
9655,97939
9666,97945
9677,97954
9687,97970
9697,97978
9707,97987
9717,97998
9727,98009
9737,98013
9747,98013
9757,98002
9767,97967
9777,97900
9787,97803
9798,97658
9808,97479
9818,97303
9828,97166
9838,97079
9848,97030
9858,97003
9868,97003
9879,97020
9889,97048
9899,97074
9909,97105
9920,97136
9930,97169
9940,97208
9950,97241
9960,97278
9970,97316
9980,97352
9990,97373
10000,97392
10010,97384
10020,97381
10030,97380
10041,97368
10051,97348
10061,97316
10071,97270
10081,97234
10091,97200
10102,97185
10112,97190
10122,97193
10132,97214
10142,97236
10152,97266
10163,97295
10173,97327
10183,97364
10193,97400
10203,97434
10213,97467
10223,97494
10233,97532
10243,97556
10253,97585
10263,97607
10273,97639
10283,97664
10294,97681
10304,97705
10314,97724
10325,97744
10335,97766
10345,97784
10355,97795
10365,97796
10375,97766
10385,97678
10395,97553
10405,97360
10416,97166
10426,97007
10436,96899
10446,96834
10456,96802
10466,96789
10476,96789
10486,96801
10496,96822
10506,96836
10516,96863
10527,96884
10538,96893
10548,96899
10558,96900
10568,96892
10578,96894
10588,96903
10598,96910
10608,96918
10618,96928
10628,96928
10638,96926
10648,96923
10659,96901
10669,96878
10679,96859
10689,96838
10699,96824
10709,96812
10719,96809
10729,96817
10739,96833
10749,96844
10760,96860
10770,96867
10781,96878
10791,96895
10801,96915
10811,96935
10821,96960
10831,96983
10841,97002
10851,97025
10861,97050
10871,97074
10881,97098
10891,97119
10902,97139
10912,97157
10922,97173
10932,97191
10942,97205
10952,97228
10962,97242
10973,97251
10983,97209
10993,97104
11003,96937
11013,96742
11024,96581
11034,96460
11044,96372
11054,96307
11064,96266
11074,96238
11084,96243
11094,96250
11104,96270
11114,96297
11124,96324
11134,96348
11145,96374
11155,96394
11165,96418
11175,96439
11185,96457
11196,96479
11206,96501
11216,96514
11226,96529
11236,96539
11246,96542
11256,96549
11266,96548
11277,96542
11287,96530
11297,96513
11307,96507
11317,96513
11327,96521
11337,96539
11347,96555
11357,96574
11367,96598
11377,96627
11388,96657
11398,96697
11409,96733
11419,96767
11429,96813
11439,96872
11449,96928
11459,96976
11469,97026
11479,97068
11489,97114
11499,97150
11510,97190
11520,97216
11530,97246
11540,97271
11550,97297
11560,97318
11570,97338
11580,97357
11590,97365
11600,97348
11610,97274
11621,97127
11631,96915
11642,96700
11652,96530
11662,96415
11672,96344
11682,96293
11692,96267
11702,96265
11712,96272
11722,96287
11732,96305
11742,96337
11753,96367
11763,96407
11773,96444
11783,96477
11793,96520
11803,96558
11813,96598
11823,96638
11833,96677
11844,96708
11854,96742
11864,96757
11874,96774
11885,96773
11895,96774
11905,96761
11915,96756
11925,96754
11935,96756
11945,96760
11955,96774
11965,96785
11975,96801
11986,96822
11996,96844
12006,96865
12016,96897
12026,96930
12036,96962
12046,97004
12057,97044
12067,97082
12077,97115
12087,97152
12097,97183
12107,97212
12118,97236
12128,97262
12138,97280
12148,97300
12158,97318
12168,97348
12178,97364
12188,97393
12198,97409
12208,97418
12218,97432
12229,97445
12239,97433
12249,97398
12259,97295
12270,97119
12280,96883
12290,96671
12300,96508
12310,96394
12320,96325
12330,96280
12341,96259
12351,96263
12361,96274
12371,96296
12381,96318
12391,96340
12401,96364
12411,96391
12421,96404
12431,96420
12441,96436
12451,96451
12461,96477
12472,96500
12483,96526
12493,96550
12503,96572
12513,96585
12523,96600
12533,96612
12543,96611
12553,96602
12563,96588
12573,96585
12583,96589
12593,96604
12603,96613
12614,96630
12624,96645
12634,96661
12644,96681
12654,96706
12664,96730
12674,96761
12684,96801
12695,96831
12705,96868
12715,96902
12725,96938
12736,96968
12746,96994
12756,97022
12766,97051
12776,97070
12786,97084
12796,97111
12806,97134
12816,97158
12826,97182
12836,97203
12846,97225
12857,97248
12867,97263
12877,97284
12887,97300
12897,97311
12907,97289
12918,97213
12928,97062
12938,96843
12948,96625
12958,96452
12968,96331
12979,96255
12989,96202
12999,96178
13009,96174
13019,96188
13029,96213
13039,96241
13049,96269
13059,96298
13069,96315
13079,96332
13090,96349
13100,96363
13110,96381
13120,96403
13131,96432
13141,96454
13151,96481
13161,96495
13171,96500
13181,96500
13191,96497
13201,96491
13211,96485
13222,96480
13232,96481
13242,96483
13252,96486
13262,96490
13272,96508
13282,96529
13292,96562
13302,96601
13312,96636
13322,96674
13333,96714
13343,96756
13354,96789
13364,96823
13374,96852
13384,96887
13394,96925
13404,96949
13414,96981
13424,97007
13434,97035
13444,97060
13455,97091
13465,97121
13475,97157
13485,97185
13495,97218
13505,97249
13515,97278
13525,97298
13535,97318
13545,97339
13556,97353
13567,97349
13577,97302
13587,97202
13597,97021
13607,96796
13617,96593
13627,96450
13637,96357
13647,96304
13657,96281
13667,96276
13677,96283
13688,96307
13698,96336
13708,96368
13718,96394
13728,96420
13738,96444
13748,96465
13758,96482
13768,96497
13779,96520
13789,96545
13800,96584
13810,96621
13820,96658
13830,96689
13840,96713
13850,96724
13860,96728
13870,96721
13880,96716
13890,96714
13900,96706
13910,96708
13921,96716
13931,96722
13941,96740
13951,96765
13961,96792
13971,96820
13981,96856
13991,96887
14002,96926
14012,96970
14023,97020
14033,97053
14043,97095
14053,97130
14063,97163
14073,97192
14083,97231
14093,97277
14103,97353
14113,97444
14123,97535
14133,97601
14144,97651
14154,97710
14164,97750
14174,97793
14184,97818
14194,97847
14204,97865
14215,97880
14225,97888
14235,97891
14245,97898
14255,97885
14266,97872
14276,97823
14286,97732
14296,97603
14306,97412
14316,97180
14326,96971
14336,96822
14346,96746
14356,96717
14367,96731
14377,96758
14387,96815
14397,96874
14407,96937
14417,96988
14428,97039
14438,97079
14448,97104
14458,97114
14468,97135
14478,97150
14488,97178
14499,97219
14509,97257
14519,97296
14529,97330
14539,97347
14549,97354
14559,97351
14569,97327
14579,97293
14589,97243
14599,97180
14609,97119
14620,97063
14630,97015
14640,96981
14651,96965
14661,96964
14671,96966
14681,96982
14691,96999
14701,97023
14711,97043
14721,97070
14731,97099
14742,97125
14752,97154
14762,97179
14772,97204
14782,97220
14792,97236
14802,97252
14812,97266
14822,97299
14832,97317
14842,97345
14853,97369
14863,97391
14874,97416
14884,97440
14894,97448
14904,97466
14914,97476
14924,97487
14934,97505
14944,97511
14954,97520
14965,97525
14975,97500
14985,97431
14995,97299
15005,97096
15015,96859
15025,96660
15035,96517
15045,96429
15055,96385
15065,96362
15075,96365
15086,96376
15097,96397
15107,96426
15117,96457
15127,96489
15137,96518
15147,96533
15157,96543
15167,96558
15177,96560
15187,96574
15197,96595
15208,96612
15218,96640
15228,96672
15238,96694
15248,96711
15258,96714
15268,96712
15278,96702
15288,96691
15299,96677
15309,96669
15320,96668
15330,96679
15340,96692
15350,96711
15360,96729
15370,96754
15380,96782
15390,96811
15400,96854
15410,96890
15420,96925
15430,96970
15441,97015
15451,97053
15461,97090
15471,97127
15481,97157
15491,97188
15501,97219
15511,97240
15522,97260
15532,97278
15542,97299
15552,97318
15563,97338
15573,97356
15583,97363
15593,97375
15603,97385
15613,97402
15623,97412
15633,97431
15643,97445
15653,97463
15663,97472
15673,97488
15684,97502
15694,97516
15704,97524
15714,97515
15724,97466
15735,97362
15745,97192
15755,96952
15765,96716
15775,96540
15785,96430
15795,96363
15806,96327
15816,96318
15826,96326
15836,96340
15846,96362
15856,96389
15866,96421
15876,96459
15886,96483
15896,96510
15906,96530
15917,96556
15927,96580
15937,96616
15947,96653
15958,96686
15968,96723
15978,96745
15988,96762
15998,96769
16008,96770
16018,96762
16028,96760
16039,96742
16049,96731
16059,96717
16069,96712
16079,96712
16089,96729
16099,96745
16109,96767
16119,96792
16129,96824
16139,96870
16150,96905
16160,96947
16171,96989
16181,97029
16191,97068
16201,97108
16211,97145
16221,97187
16231,97222
16241,97249
16251,97279
16261,97304
16272,97328
16282,97349
16292,97358
16302,97370
16312,97385
16322,97399
16332,97412
16342,97422
16352,97437
16362,97449
16372,97458
16382,97472
16394,97480
16404,97491
16414,97502
16424,97508
16434,97507
16444,97465
16454,97391
16464,97256
16474,97039
16484,96792
16494,96596
16505,96460
16515,96379
16525,96337
16535,96321
16545,96330
16555,96346
16565,96382
16575,96415
16585,96448
16595,96484
16606,96517
16616,96555
16626,96594
16637,96634
16647,96675
16657,96718
16667,96768
16677,96821
16687,96860
16697,96892
16707,96912
16717,96910
16727,96907
16737,96895
16748,96876
16758,96862
16768,96852
16778,96844
16788,96841
16798,96849
16808,96858
16818,96874
16829,96890
16839,96909
16849,96932
16859,96965
16870,97000
16880,97030
16890,97072
16900,97112
16910,97152
16920,97190
16930,97218
16940,97254
16950,97283
16960,97308
16970,97338
16981,97359
16991,97377
17001,97394
17011,97412
17021,97430
17031,97448
17041,97466
17052,97480
17062,97493
17072,97511
17082,97526
17092,97540
17102,97556
17113,97561
17123,97571
17133,97561
17143,97509
17153,97400
17163,97231
17173,96995
17183,96762
17193,96597
17203,96482
17213,96429
17224,96406
17234,96402
17244,96426
17254,96453
17265,96494
17275,96538
17285,96578
17295,96630
17305,96674
17315,96720
17325,96758
17336,96795
17346,96833
17356,96877
17366,96919
17376,96953
17386,96990
17396,97018
17406,97030
17416,97036
17426,97027
17436,97016
17446,96997
17457,96984
17467,96972
17478,96959
17488,96956
17498,96970
17508,96981
17518,97003
17528,97026
17538,97063
17548,97099
17558,97134
17568,97168
17579,97208
17589,97246
17599,97279
17609,97312
17619,97339
17629,97365
17639,97376
17649,97386
17659,97392
17669,97403
17679,97418
17690,97433
17701,97445
17711,97459
17721,97467
17731,97477
17741,97491
17751,97505
17761,97514
17771,97524
17781,97540
17791,97549
17801,97562
17812,97562
17822,97549
17832,97502
17842,97404
17852,97245
17862,97013
17872,96758
17882,96569
17892,96444
17903,96370
17913,96336
17923,96334
17934,96344
17944,96361
17954,96389
17964,96427
17974,96464
17984,96501
17994,96533
18004,96559
18014,96586
18024,96617
18034,96639
18045,96670
18055,96700
18065,96742
18075,96790
18085,96831
18095,96867
18105,96887
18116,96900
18126,96899
18136,96887
18146,96877
18156,96869
18166,96857
18177,96842
18187,96836
18197,96843
18207,96861
18217,96885
18227,96909
18237,96934
18247,96962
18257,97005
18267,97048
18277,97095
18288,97142
18298,97178
18308,97217
18318,97251
18329,97281
18339,97306
18349,97334
18359,97356
18369,97375
18379,97395
18389,97420
18399,97441
18410,97464
18420,97483
18430,97498
18440,97516
18450,97534
18460,97550
18470,97562
18480,97569
18490,97583
18500,97588
18510,97570
18520,97519
18531,97420
18541,97276
18552,97085
18562,96871
18572,96696
18582,96583
18592,96521
18602,96486
18612,96484
18622,96499
18632,96533
18643,96572
18653,96620
18663,96661
18673,96702
18683,96736
18693,96763
18703,96785
18713,96804
18723,96817
18733,96838
18743,96859
18753,96877
18765,96895
18775,96899
18785,96903
18795,96898
18805,96896
18815,96877
18825,96852
18835,96837
18845,96829
18855,96826
18865,96823
18875,96832
18885,96850
18896,96865
18906,96892
18916,96924
18926,96965
18936,96998
18946,97043
18956,97089
18966,97141
18977,97181
18987,97216
18997,97256
19007,97297
19018,97327
19028,97356
19038,97380
19048,97404
19058,97418
19068,97437
19078,97456
19088,97479
19098,97496
19108,97513
19118,97530
19129,97546
19139,97565
19149,97573
19159,97587
19169,97603
19179,97614
19190,97610
19200,97576
19210,97500
19220,97362
19230,97157
19240,96906
19250,96706
19261,96566
19271,96479
19281,96432
19291,96421
19301,96434
19311,96463
19321,96494
19331,96522
19341,96568
19351,96615
19361,96653
19372,96692
19382,96732
19392,96761
19402,96793
19413,96836
19423,96878
19433,96924
19443,96958
19453,96987
19463,97008
19473,97022
19483,97026
19494,97029
19504,97011
19514,96999
19524,96988
19534,96975
19544,96969
19554,96972
19564,96985
19574,97003
19584,97031
19594,97066
19604,97095
19614,97135
19625,97178
19636,97217
19646,97254
19656,97287
19666,97311
19676,97339
19686,97364
19696,97389
19706,97409
19716,97426
19726,97445
19736,97462
19747,97483
19757,97498
19767,97519
19777,97542
19787,97554
19797,97567
19807,97583
19817,97597
19827,97609
19837,97617
19848,97628
19859,97613
19869,97574
19879,97487
19889,97341
19899,97141
19909,96905
19919,96722
19929,96601
19939,96527
19949,96500
19959,96500
19970,96514
19980,96542
19990,96582
20000,96627
20010,96674
20020,96727
20030,96773
20040,96814
20050,96854
20061,96890
20071,96931
20082,96973
20092,97022
20102,97070
20112,97099
20122,97122
20132,97134
20142,97136
20152,97128
20162,97114
20172,97091
20182,97071
20192,97056
20202,97053
20213,97057
20223,97077
20233,97090
20243,97121
20253,97151
20263,97181
20273,97213
20284,97249
20294,97291
20304,97328
20314,97364
20325,97388
20335,97416
20345,97437
20355,97457
20365,97476
20375,97499
20385,97517
20395,97534
20405,97554
20415,97570
20425,97582
20436,97605
20446,97618
20456,97631
20466,97650
20476,97659
20486,97669
20497,97677
20507,97670
20517,97627
20527,97540
20537,97389
20547,97183
20558,96944
20568,96753
20578,96630
20588,96551
20598,96520
20608,96521
20618,96529
20628,96550
20638,96583
20648,96620
20658,96667
20668,96704
20679,96734
20689,96763
20699,96779
20709,96791
20720,96803
20730,96820
20740,96834
20750,96845
20760,96860
20770,96865
20780,96857
20790,96856
20801,96847
20811,96828
20821,96805
20831,96785
20841,96768
20851,96763
20861,96765
20871,96780
20881,96791
20891,96808
20902,96831
20912,96859
20922,96891
20933,96923
20943,96955
20953,96982
20963,97011
20973,97036
20983,97064
20993,97093
21003,97114
21013,97136
21024,97156
21034,97180
21044,97194
21054,97219
21064,97238
21074,97255
21084,97279
21094,97301
21104,97326
21114,97343
21124,97361
21134,97381
21145,97395
21156,97397
21166,97385
21176,97319
21186,97177
21196,96969
21206,96747
21216,96574
21226,96448
21236,96372
21246,96322
21256,96296
21267,96286
21277,96294
21287,96309
21297,96333
21307,96354
21317,96382
21327,96394
21337,96412
21347,96421
21357,96426
21368,96434
21379,96450
21389,96475
21399,96508
21409,96538
21419,96570
21429,96599
21439,96614
21449,96618
21459,96625
21469,96622
21480,96616
21490,96613
21500,96608
21510,96611
21520,96617
21530,96627
21540,96641
21550,96666
21560,96688
21570,96720
21581,96750
21591,96779
21602,96819
21612,96855
21622,96887
21632,96920
21642,96953
21652,96989
21662,97019
21672,97035
21682,97062
21692,97082
21702,97109
21713,97129
21723,97146
21733,97163
21743,97176
21753,97192
21763,97214
21773,97236
21783,97256
21794,97285
21804,97300
21814,97313
21824,97327
21834,97330
21845,97307
21855,97228
21865,97070
21875,96841
21885,96604
21895,96417
21905,96295
21915,96210
21925,96161
21935,96143
21945,96142
21956,96152
21966,96169
21976,96191
21986,96210
21996,96230
22007,96245
22017,96257
22027,96269
22037,96283
22047,96294
22057,96313
22067,96336
22078,96371
22088,96403
22098,96447
22108,96476
22118,96495
22128,96506
22138,96509
22148,96507
22158,96505
22169,96514
22179,96513
22189,96521
22199,96528
22209,96546
22219,96561
22230,96580
22240,96604
22250,96635
22260,96672
22270,96704
22280,96736
22291,96773
22301,96799
22311,96824
22321,96851
22331,96879
22341,96913
22351,96940
22361,96967
22371,96993
22381,97013
22391,97031
22401,97057
22412,97076
22422,97103
22432,97127
22443,97142
22453,97165
22463,97183
22473,97199
22483,97212
22493,97224
22503,97236
22513,97247
22524,97247
22534,97220
22544,97129
22554,96953
22564,96706
22574,96469
22584,96295
22594,96177
22604,96096
22614,96047
22624,96018
22634,96007
22645,96012
22655,96022
22666,96037
22676,96060
22686,96083
22696,96104
22706,96125
22716,96146
22726,96159
22736,96177
22746,96192
22756,96217
22766,96247
22777,96279
22787,96306
22797,96323
22807,96334
22817,96337
22827,96341
22837,96340
22847,96346
22857,96345
22867,96339
22879,96346
22889,96357
22899,96373
22909,96389
22919,96414
22929,96453
22939,96489
22949,96517
22959,96563
22969,96616
22979,96659
22989,96700
23000,96743
23010,96774
23020,96811
23030,96849
23040,96884
23050,96921
23060,96954
23070,96977
23080,97002
23091,97030
23101,97052
23111,97072
23122,97102
23132,97137
23142,97173
23152,97197
23162,97225
23172,97253
23182,97275
23192,97295
23202,97298
23212,97272
23222,97197
23232,97045
23243,96809
23253,96560
23263,96369
23273,96253
23283,96184
23293,96138
23304,96125
23314,96130
23324,96147
23334,96173
23344,96206
23355,96235
23365,96266
23375,96294
23385,96316
23395,96327
23405,96337
23415,96351
23425,96372
23435,96398
23445,96427
23455,96454
23466,96471
23476,96479
23486,96488
23496,96479
23506,96461
23516,96438
23527,96406
23537,96371
23547,96349
23557,96331
23567,96323
23577,96320
23588,96328
23598,96342
23608,96363
23618,96392
23628,96424
23638,96465
23648,96506
23658,96552
23668,96591
23678,96626
23688,96661
23698,96702
23708,96744
23719,96774
23729,96801
23740,96830
23750,96850
23760,96878
23770,96907
23780,96934
23790,96957
23800,96979
23810,97005
23820,97024
23830,97056
23841,97073
23851,97093
23861,97113
23871,97141
23881,97160
23891,97172
23901,97160
23911,97097
23921,96944
23931,96715
23941,96471
23953,96276
23963,96156
23973,96073
23983,96024
23993,95999
24003,95999
24013,96006
24023,96021
24033,96046
24043,96067
24053,96092
24063,96115
24074,96135
24084,96151
24094,96166
24104,96176
24114,96189
24124,96213
24134,96246
24144,96280
24154,96314
24165,96348
24175,96375
24185,96395
24196,96408
24206,96417
24216,96405
24226,96404
24236,96399
24246,96398
24256,96400
24266,96407
24276,96421
24286,96436
24296,96462
24306,96492
24317,96514
24327,96550
24337,96577
24347,96604
24357,96628
24367,96646
24377,96671
24388,96692
24398,96726
24408,96753
24418,96777
24429,96809
24439,96841
24449,96870
24459,96900
24469,96925
24479,96944
24489,96968
24499,96980
24509,97002
24519,97016
24529,97038
24539,97064
24550,97085
24560,97105
24570,97135
24580,97153
24590,97173
24601,97171
24611,97136
24621,97035
24631,96837
24641,96584
24651,96363
24661,96207
24671,96102
24682,96040
24692,96010
24702,95997
24712,96005
24722,96022
24732,96049
24742,96075
24752,96100
24762,96128
24772,96158
24783,96181
24793,96197
24803,96204
24814,96227
24824,96250
24834,96283
24844,96321
24854,96369
24864,96401
24874,96435
24884,96459
24894,96479
24904,96488
24915,96482
24925,96472
24935,96460
24945,96455
24955,96455
24965,96467
24975,96478
24985,96502
24995,96523
25005,96554
25015,96586
25027,96619
25037,96648
25047,96677
25057,96704
25067,96723
25077,96745
25087,96757
25097,96781
25107,96803
25117,96828
25127,96848
25137,96867
25148,96888
25158,96897
25168,96916
25178,96931
25188,96951
25198,96967
25208,96989
25218,97010
25228,97030
25239,97057
25249,97073
25259,97094
25269,97120
25280,97143
25290,97163
25300,97183
25310,97206
25320,97220
25330,97225
25340,97196
25350,97107
25360,96933
25370,96679
25380,96437
25391,96256
25401,96147
25411,96082
25421,96049
25431,96037
25442,96047
25452,96062
25462,96093
25472,96122
25482,96154
25492,96189
25502,96219
25513,96246
25523,96272
25533,96293
25543,96315
25553,96342
25563,96383
25573,96421
25583,96471
25593,96501
25603,96531
25613,96537
25623,96537
25634,96532
25644,96520
25654,96504
25665,96499
25675,96491
25685,96490
25695,96495
25705,96510
25715,96535
25725,96567
25735,96599
25745,96637
25756,96681
25766,96723
25776,96766
25786,96807
25796,96854
25806,96897
25816,96940
25826,96980
25836,97017
25846,97048
25857,97083
25867,97113
25878,97141
25888,97170
25898,97195
25908,97223
25918,97242
25928,97258
25938,97282
25948,97300
25958,97321
25968,97338
25979,97363
25989,97383
25999,97400
26009,97420
26019,97432
26029,97439
26039,97420
26049,97359
26059,97239
26069,97050
26079,96791
26090,96552
26101,96380
26111,96274
26121,96219
26131,96192
26141,96187
26151,96207
26161,96231
26171,96269
26181,96307
26191,96347
26201,96390
26212,96440
26222,96483
26232,96528
26242,96566
26252,96609
26262,96654
26272,96706
26282,96753
26292,96789
26302,96817
26313,96840
26323,96852
26334,96854
26344,96841
26354,96832
26364,96820
26374,96824
26384,96845
26394,96872
26404,96912
26414,96952
26424,97004
26434,97056
26445,97106
26455,97151
26465,97198
26475,97234
26485,97279
26495,97314
26505,97349
26515,97379
26526,97399
26536,97418
26546,97431
26556,97441
26567,97453
26577,97456
26587,97466
26597,97474
26607,97483
26617,97494
26627,97502
26637,97510
26647,97523
26657,97536
26667,97555
26678,97567
26688,97579
26698,97589
26708,97591
26718,97593
26728,97584
26738,97533
26749,97423
26759,97252
26769,97014
26779,96762
26789,96572
26800,96448
26810,96377
26820,96335
26830,96338
26840,96357
26850,96379
26860,96417
26870,96462
26880,96511
26890,96562
26900,96618
26911,96660
26921,96699
26931,96746
26941,96791
26951,96837
26962,96894
26972,96945
26982,96986
26992,97021
27002,97049
27012,97057
27023,97054
27033,97041
27043,97028
27053,97014
27063,97000
27073,96999
27083,96997
27093,97008
27103,97022
27113,97047
27123,97071
27133,97108
27144,97148
27154,97194
27164,97234
27175,97269
27185,97302
27195,97336
27205,97366
27215,97404
27225,97426
27235,97449
27245,97474
27255,97496
27266,97512
27276,97536
27286,97549
27296,97564
27306,97577
27316,97596
27326,97617
27336,97644
27346,97672
27356,97691
27366,97705
27377,97723
27388,97737
27398,97752
27408,97755
27418,97743
27428,97712
27438,97639
27448,97524
27458,97350
27468,97119
27478,96877
27489,96715
27499,96603
27509,96546
27519,96527
27529,96528
27539,96564
27549,96606
27559,96656
27569,96710
27579,96771
27589,96821
27601,96870
27611,96916
27621,96959
27631,97000
27641,97045
27651,97101
27661,97145
27671,97186
27681,97217
27691,97236
27701,97247
27711,97255
27722,97254
27732,97247
27742,97234
27752,97234
27762,97229
27772,97233
27782,97238
27792,97254
27802,97274
27813,97296
27823,97323
27834,97362
27844,97388
27854,97430
27864,97457
27874,97488
27884,97512
27894,97536
27904,97565
27914,97580
27924,97593
27934,97610
27945,97634
27955,97644
27965,97660
27975,97680
27985,97691
27995,97708
28005,97725
28015,97737
28026,97750
28036,97761
28046,97778
28057,97790
28067,97804
28077,97817
28087,97831
28097,97835
28107,97842
28117,97830
28127,97797
28137,97730
28147,97616
28157,97451
28167,97241
28178,97025
28188,96861
28198,96767
28208,96713
28218,96703
28228,96717
28238,96756
28249,96813
28259,96888
28269,96959
28279,97030
28289,97094
28300,97153
28310,97204
28320,97253
28330,97301
28340,97341
28350,97395
28360,97434
28370,97468
28380,97495
28390,97502
28401,97507
28411,97508
28421,97500
28431,97490
28441,97479
28451,97477
28462,97470
28472,97475
28482,97477
28492,97487
28502,97505
28512,97526
28522,97551
28533,97574
28543,97602
28553,97626
28563,97652
28573,97679
28583,97708
28593,97736
28603,97760
28613,97783
28623,97800
28633,97823
28644,97837
28654,97860
28664,97871
28675,97885
28685,97889
28695,97892
28705,97900
28715,97904
28725,97908
28735,97918
28745,97924
28756,97931
28766,97940
28776,97950
28786,97952
28796,97942
28806,97909
28816,97838
28826,97725
28836,97569
28846,97368
28856,97147
28866,96974
28876,96870
28888,96816
28898,96796
28908,96804
28918,96849
28928,96902
28938,96966
28948,97042
28958,97116
28968,97186
28978,97243
28988,97300
28999,97346
29009,97389
29019,97436
29029,97480
29039,97517
29049,97550
29059,97561
29069,97571
29079,97565
29089,97551
29099,97535
29111,97519
29121,97508
29131,97507
29141,97512
29151,97514
29161,97525
29171,97538
29181,97558
29191,97575
29201,97603
29211,97627
29221,97660
29232,97684
29242,97706
29252,97725
29262,97750
29272,97765
29282,97781
29292,97800
29302,97818
29312,97840
29323,97856
29333,97866
29344,97879
29354,97894
29364,97911
29374,97914
29384,97926
29394,97935
29404,97948
29414,97958
29424,97966
29434,97971
29444,97970
29454,97959
29465,97915
29475,97831
29485,97713
29495,97542
29505,97339
29515,97130
29525,96982
29535,96893
29546,96847
29556,96837
29566,96855
29577,96892
29587,96941
29597,96996
29607,97064
29617,97127
29627,97181
29637,97228
29647,97258
29657,97296
29667,97333
29678,97381
29688,97419
29698,97456
29708,97490
29718,97507
29728,97512
29738,97512
29748,97502
29759,97490
29769,97468
29779,97448
29790,97429
29800,97414
29810,97414
29820,97417
29830,97424
29840,97441
29850,97454
29860,97476
29870,97501
29880,97529
29890,97562
29901,97586
29911,97614
29921,97633
29931,97655
29941,97675
29951,97690
29961,97711
29972,97727
29982,97746
29992,97755
30002,97767
30013,97778
30023,97789
30033,97803
30043,97813
30053,97824
30063,97830
30073,97836
30083,97841
30093,97846
30103,97832
30113,97786
30124,97693
30134,97539
30144,97329
30154,97081
30164,96885
30174,96761
30185,96683
30195,96645
30205,96640
30215,96648
30225,96680
30236,96716
30246,96758
30256,96801
30266,96845
30276,96882
30286,96915
30296,96942
30306,96966
30316,96996
30326,97029
30336,97072
30347,97114
30357,97150
30367,97176
30377,97191
30387,97202
30398,97201
30408,97197
30418,97184
30428,97164
30438,97144
30448,97133
30458,97121
30469,97116
30479,97116
30489,97118
30499,97121
30509,97126
30519,97142
30529,97151
30539,97168
30549,97184
30559,97194
30569,97209
30580,97236
30590,97262
30600,97291
30611,97308
30621,97339
30631,97365
30641,97387
30651,97415
30661,97435
30671,97460
30682,97484
30692,97511
30702,97530
30712,97547
30722,97569
30732,97582
30742,97600
30752,97605
30762,97582
30772,97512
30782,97371
30792,97159
30803,96916
30813,96722
30823,96583
30834,96497
30844,96442
30854,96420
30864,96415
30874,96427
30884,96446
30894,96473
30904,96497
30915,96528
30925,96551
30935,96571
30945,96595
30955,96611
30965,96627
30975,96646
30985,96670
30995,96695
31005,96734
31015,96760
31026,96778
31036,96784
31047,96787
31057,96782
31067,96777
31077,96767
31087,96761
31097,96758
31107,96763
31117,96769
31127,96780
31138,96796
31148,96814
31158,96838
31168,96864
31178,96900
31188,96932
31198,96977
31208,97016
31218,97055
31228,97098
31238,97140
31249,97180
31260,97218
31270,97245
31280,97280
31290,97310
31300,97343
31310,97369
31320,97395
31330,97416
31340,97435
31350,97453
31361,97471
31371,97482
31381,97509
31391,97526
31401,97549
31411,97562
31421,97564
31431,97554
31441,97500
31451,97379
31461,97183
31471,96935
31483,96721
31493,96572
31503,96477
31513,96420
31523,96403
31533,96393
31543,96404
31553,96428
31563,96454
31573,96491
31584,96518
31594,96546
31604,96569
31614,96593
31624,96612
31634,96637
31644,96654
31654,96680
31664,96715
31674,96743
31684,96766
31695,96785
31706,96798
31716,96799
31726,96787
31736,96781
31746,96765
31756,96756
31766,96744
31776,96738
31786,96738
31796,96751
31806,96765
31817,96792
31827,96820
31837,96851
31847,96892
31857,96935
31867,96969
31877,97004
31887,97041
31897,97074
31907,97109
31918,97134
31928,97169
31939,97200
31949,97238
31959,97269
31969,97295
31979,97321
31989,97352
31999,97376
32009,97397
32019,97421
32029,97444
32040,97461
32050,97482
32060,97497
32070,97514
32080,97525
32090,97534
32100,97513
32110,97462
32120,97342
32131,97143
32141,96896
32152,96688
32162,96545
32172,96468
32182,96416
32192,96391
32202,96392
32212,96407
32222,96429
32232,96458
32242,96483
32252,96520
32262,96553
32273,96584
32283,96612
32293,96632
32303,96654
32313,96680
32323,96714
32333,96750
32344,96782
32354,96803
32364,96825
32374,96826
32385,96814
32395,96802
32405,96782
32415,96770
32425,96754
32435,96746
32445,96747
32455,96754
32465,96766
32475,96784
32486,96811
32496,96842
32506,96872
32516,96904
32526,96939
32536,96976
32546,97010
32556,97044
32567,97080
32577,97116
32587,97143
32598,97179
32608,97212
32618,97240
32628,97273
32638,97299
32648,97324
32658,97349
32668,97369
32678,97388
32688,97414
32698,97437
32708,97459
32719,97479
32729,97502
32739,97516
32749,97516
32759,97501
32769,97423
32780,97280
32790,97067
32800,96835
32810,96653
32820,96522
32831,96450
32841,96404
32851,96393
32861,96398
32871,96415
32881,96442
32891,96468
32901,96500
32911,96529
32921,96556
32931,96585
32941,96603
32952,96620
32962,96637
32972,96665
32982,96691
32993,96724
33003,96761
33013,96794
33023,96811
33033,96823
33043,96826
33053,96819
33063,96804
33074,96792
33084,96782
33094,96775
33104,96775
33114,96781
33124,96789
33134,96797
33144,96818
33154,96847
33164,96872
33174,96906
33185,96947
33195,96987
33205,97026
33216,97058
33226,97100
33236,97132
33246,97169
33256,97197
33266,97230
33276,97260
33286,97287
33296,97314
33307,97329
33317,97345
33327,97367
33337,97387
33347,97407
33357,97426
33367,97443
33377,97462
33387,97483
33397,97500
33408,97516
33418,97528
33429,97540
33439,97535
33449,97497
33459,97401
33469,97228
33479,96989
33489,96745
33499,96575
33509,96460
33519,96401
33530,96363
33540,96350
33550,96359
33560,96374
33570,96389
33580,96410
33590,96433
33600,96447
33610,96463
33620,96476
33630,96481
33641,96479
33652,96476
33662,96484
33672,96494
33682,96514
33692,96532
33702,96550
33712,96561
33722,96569
33732,96571
33742,96578
33752,96576
33763,96565
33773,96559
33783,96557
33793,96562
33803,96567
33813,96579
33823,96593
33833,96610
33843,96629
33853,96651
33864,96682
33874,96707
33885,96738
33895,96766
33905,96793
33915,96827
33925,96856
33935,96884
33945,96910
33955,96934
33965,96960
33975,96986
33985,97018
33996,97043
34006,97069
34016,97086
34026,97108
34036,97124
34046,97145
34056,97165
34066,97183
34077,97207
34087,97236
34097,97262
34107,97288
34118,97312
34128,97337
34138,97356
34148,97372
34158,97373
34168,97333
34178,97223
34188,97035
34198,96796
34208,96584
34219,96436
34229,96340
34239,96280
34249,96242
34259,96230
34269,96234
34279,96247
34290,96270
34300,96294
34310,96316
34320,96339
34331,96359
34341,96374
34351,96386
34361,96396
34371,96406
34381,96416
34391,96435
34401,96458
34411,96480
34421,96506
34431,96529
34441,96531
34452,96531
34462,96528
34472,96520
34482,96509
34492,96502
34502,96497
34513,96503
34523,96512
34533,96523
34543,96540
34553,96563
34564,96584
34574,96609
34584,96637
34594,96670
34604,96699
34614,96735
34624,96764
34634,96807
34644,96844
34654,96875
34664,96910
34675,96943
34685,96980
34695,97013
34705,97034
34715,97056
34726,97088
34736,97106
34746,97128
34756,97146
34766,97165
34776,97183
34787,97204
34797,97220
34807,97244
34817,97263
34827,97286
34837,97310
34847,97328
34857,97356
34867,97376
34877,97402
34888,97426
34897,97447
34908,97453
34918,97428
34928,97336
34939,97173
34949,96933
34959,96686
34969,96500
34979,96383
34989,96315
34999,96283
35010,96267
35020,96269
35030,96290
35040,96314
35050,96341
35060,96375
35070,96411
35080,96439
35090,96462
35100,96487
35110,96498
35120,96518
35131,96545
35141,96577
35151,96600
35162,96635
35172,96662
35182,96677
35192,96691
35202,96694
35212,96691
35222,96685
35233,96668
35243,96660
35253,96654
35263,96653
35273,96665
35283,96672
35293,96694
35303,96719
35313,96746
35323,96781
35333,96817
35344,96854
35354,96895
35364,96930
35375,96964
35385,96996
35395,97029
35405,97061
35415,97093
35425,97122
35435,97161
35445,97184
35456,97213
35466,97234
35476,97256
35486,97276
35496,97289
35506,97309
35516,97327
35526,97348
35536,97360
35546,97381
35556,97403
35567,97418
35577,97435
35587,97458
35598,97476
35608,97494
35618,97506
35628,97518
35638,97530
35648,97531
35658,97507
35668,97433
35679,97296
35689,97081
35699,96818
35709,96609
35719,96457
35729,96365
35739,96316
35749,96301
35759,96302
35769,96322
35779,96354
35790,96390
35800,96423
35811,96465
35821,96503
35831,96540
35841,96569
35851,96595
35861,96624
35871,96656
35881,96702
35891,96746
35901,96789
35912,96818
35922,96832
35932,96836
35942,96830
35952,96814
35962,96793
35972,96778
35982,96755
35992,96739
36002,96732
36012,96743
36023,96754
36034,96771
36044,96793
36054,96819
36064,96851
36074,96884
36084,96922
36094,96967
36104,97005
36114,97046
36124,97084
36135,97119
36145,97157
36155,97190
36165,97228
36175,97254
36185,97277
36195,97298
36205,97321
36215,97347
36225,97366
36235,97384
36247,97398
36257,97419
36267,97441
36277,97453
36287,97469
36297,97483
36307,97496
36317,97515
36327,97527
36337,97533
36348,97535
36358,97507
36368,97433
36378,97295
36388,97082
36398,96837
36408,96633
36418,96495
36428,96410
36438,96366
36448,96347
36459,96346
36470,96358
36480,96388
36490,96423
36500,96466
36510,96506
36520,96545
36530,96576
36540,96603
36550,96622
36560,96633
36570,96649
36581,96667
36591,96687
36601,96710
36611,96716
36621,96712
36631,96709
36641,96695
36651,96680
36661,96659
36671,96637
36682,96619
36693,96595
36703,96587
36713,96587
36723,96597
36733,96608
36743,96634
36753,96654
36763,96684
36773,96715
36783,96744
36794,96780
36804,96809
36814,96850
36824,96888
36834,96926
36844,96967
36854,97004
36864,97032
36874,97066
36884,97091
36895,97115
36906,97136
36916,97159
36926,97178
36936,97192
36946,97211
36956,97227
36966,97254
36976,97276
36986,97306
36996,97333
37006,97365
37016,97392
37027,97416
37037,97427
37047,97411
37057,97344
37067,97209
37077,96991
37087,96728
37097,96507
37108,96362
37118,96270
37128,96219
37139,96191
37149,96186
37159,96197
37169,96220
37179,96250
37189,96277
37199,96303
37209,96330
37219,96356
37229,96373
37240,96390
37250,96404
37260,96421
37270,96443
37280,96473
37290,96502
37300,96518
37310,96542
37321,96547
37331,96553
37342,96554
37351,96543
37362,96536
37372,96518
37382,96509
37392,96500
37402,96498
37412,96510
37422,96531
37432,96555
37442,96582
37452,96613
37463,96647
37473,96690
37483,96736
37493,96788
37503,96844
37513,96909
37523,96965
37534,97026
37544,97072
37554,97122
37564,97167
37574,97217
37585,97262
37595,97296
37605,97325
37615,97349
37625,97375
37635,97404
37645,97421
37655,97441
37665,97457
37675,97470
37685,97487
37696,97501
37706,97516
37716,97532
37726,97553
37736,97566
37746,97567
37757,97530
37767,97443
37777,97283
37787,97044
37797,96760
37808,96542
37818,96408
37828,96342
37838,96304
37848,96293
37858,96301
37868,96317
37878,96346
37888,96384
37898,96425
37908,96478
37919,96521
37929,96566
37939,96601
37949,96634
37959,96672
37970,96717
37980,96773
37990,96820
38000,96876
38010,96929
38020,96967
38031,97002
38041,97010
38051,97013
38061,97012
38071,96999
38081,96980
38091,96972
38101,96971
38111,96971
38121,96979
38131,97002
38141,97024
38152,97055
38162,97088
38172,97123
38183,97157
38193,97197
38203,97232
38213,97265
38223,97307
38233,97336
38243,97368
38253,97398
38264,97422
38274,97444
38284,97462
38294,97481
38304,97492
38314,97513
38324,97530
38334,97546
38344,97555
38354,97571
38364,97582
38375,97595
38385,97611
38396,97628
38406,97635
38416,97650
38426,97658
38436,97669
38446,97673
38456,97661
38466,97619
38476,97532
38487,97384
38497,97171
38507,96906
38517,96682
38527,96539
38537,96448
38547,96409
38557,96397
38567,96405
38577,96420
38587,96453
38597,96492
38609,96528
38619,96572
38629,96613
38639,96653
38649,96684
38659,96721
38669,96756
38679,96793
38689,96835
38699,96875
38710,96913
38720,96950
38730,96981
38740,96997
38750,97006
38760,97004
38770,96993
38780,96981
38790,96967
38800,96963
38810,96966
38822,96976
38832,96993
38842,97023
38852,97049
38862,97087
38872,97119
38882,97164
38892,97209
38902,97248
38912,97289
38922,97331
38932,97370
38943,97399
38953,97433
38963,97460
38973,97490
38983,97509
38993,97530
39003,97549
39013,97566
39023,97580
39034,97591
39045,97609
39055,97625
39065,97638
39075,97651
39085,97662
39095,97672
39105,97685
39115,97701
39125,97716
39135,97732
39145,97742
39155,97742
39165,97715
39176,97646
39186,97527
39196,97353
39206,97121
39216,96893
39226,96731
39236,96629
39246,96580
39257,96569
39267,96579
39277,96610
39288,96658
39298,96715
39308,96781
39318,96844
39328,96900
39338,96954
39348,96999
39358,97035
39368,97080
39378,97123
39388,97164
39399,97205
39409,97239
39419,97270
39429,97284
39439,97282
39449,97274
39459,97256
39470,97242
39480,97226
39490,97209
39500,97199
39510,97191
39521,97201
39531,97217
39541,97240
39551,97267
39561,97289
39571,97323
39581,97357
39591,97384
39601,97419
39611,97452
39621,97485
39631,97511
39642,97533
39652,97556
39662,97574
39672,97592
39683,97606
39693,97618
39703,97638
39713,97655
39723,97673
39733,97690
39743,97706
39753,97716
39764,97728
39774,97738
39784,97752
39794,97765
39804,97773
39814,97782
39824,97773
39834,97742
39844,97662
39854,97531
39864,97337
39874,97092
39885,96870
39896,96722
39906,96636
39916,96592
39926,96581
39936,96588
39946,96612
39956,96647
39966,96691
39976,96740
39986,96793
39996,96842
40007,96885
40017,96913
40027,96945
40037,96978
40047,97016
40057,97055
40067,97102
40077,97136
40087,97165
40097,97188
40108,97197
40119,97193
40129,97175
40139,97158
40149,97134
40159,97124
40169,97116
40179,97116
40189,97127
40199,97143
40209,97165
40219,97188
40230,97219
40240,97250
40250,97289
40260,97324
40270,97367
40280,97403
40290,97435
40300,97464
40310,97491
40321,97509
40331,97529
40342,97551
40352,97573
40362,97591
40372,97609
40382,97631
40392,97647
40402,97663
40412,97678
40422,97689
40432,97699
40442,97713
40452,97725
40463,97732
40473,97737
40483,97741
40493,97727
40503,97691
40513,97581
40523,97423
40534,97184
40544,96923
40554,96730
40564,96604
40575,96532
40585,96500
40595,96490
40605,96500
40615,96520
40625,96550
40635,96575
40645,96607
40655,96646
40665,96674
40675,96697
40685,96721
40696,96733
40706,96749
40716,96777
40726,96812
40736,96853
40746,96893
40757,96929
40767,96955
40777,96963
40787,96968
40797,96957
40808,96949
40818,96939
40828,96927
40838,96923
40848,96914
40858,96912
40868,96922
40878,96939
40888,96969
40898,96994
40908,97031
40919,97074
40929,97106
40939,97144
40949,97176
40959,97209
40970,97243
40980,97278
40990,97304
41000,97340
41010,97363
41020,97393
41031,97407
41041,97424
41051,97443
41061,97465
41071,97487
41081,97501
41091,97523
41101,97545
41111,97560
41121,97577
41131,97590
41142,97605
41152,97612
41162,97617
41172,97605
41183,97543
41193,97429
41203,97234
41213,96979
41223,96749
41233,96594
41244,96493
41254,96442
41264,96405
41274,96407
41284,96415
41294,96434
41304,96460
41314,96481
41324,96508
41334,96526
41345,96548
41354,96567
41365,96581
41375,96602
41385,96626
41396,96653
41406,96686
41416,96721
41426,96750
41436,96775
41446,96795
41456,96809
41466,96813
41476,96821
41487,96817
41497,96811
41507,96808
41517,96806
41527,96811
41537,96825
41547,96841
41557,96870
41567,96895
41577,96935
41587,96976
41598,97021
41608,97071
41619,97111
41629,97151
41639,97200
41649,97236
41659,97273
41669,97308
41679,97333
41689,97360
41700,97390
41710,97412
41720,97434
41730,97457
41740,97472
41750,97491
41760,97507
41770,97520
41780,97540
41790,97553
41800,97569
41810,97585
41821,97604
41832,97615
41842,97629
41852,97638
41862,97644
41872,97626
41882,97579
41892,97460
41902,97272
41912,97014
41922,96765
41933,96598
41943,96498
41953,96441
41963,96421
41973,96417
41983,96436
41993,96459
42003,96496
42013,96531
42023,96573
42034,96598
42045,96618
42055,96645
42065,96665
42075,96683
42085,96703
42095,96733
42105,96769
42115,96806
42125,96838
42136,96866
42146,96877
42156,96881
42166,96882
42176,96871
42186,96860
42196,96851
42206,96848
42216,96840
42226,96834
42236,96846
42246,96866
42258,96879
42268,96902
42278,96935
42288,96965
42298,97004
42308,97049
42318,97084
42328,97129
42338,97168
42348,97205
42358,97238
42369,97272
42379,97298
42389,97329
42399,97354
42409,97379
42419,97404
42429,97428
42439,97445
42449,97471
42459,97486
42471,97503
42481,97518
42491,97542
42501,97566
42511,97582
42521,97602
42531,97611
42541,97624
42551,97626
42561,97613
42571,97544
42581,97423
42592,97234
42602,96977
42612,96760
42622,96615
42632,96520
42642,96474
42652,96456
42662,96459
42672,96477
42683,96503
42693,96537
42704,96580
42714,96621
42724,96663
42734,96702
42744,96734
42754,96766
42764,96797
42774,96839
42784,96878
42794,96922
42805,96965
42815,96998
42825,97026
42835,97038
42845,97034
42855,97029
42865,97010
42875,96992
42885,96980
42896,96972
42907,96971
42917,96982
42927,96999
42937,97027
42947,97054
42957,97091
42967,97122
42977,97166
42987,97203
42997,97246
43007,97290
43018,97330
43028,97368
43038,97393
43048,97431
43058,97458
43068,97478
43078,97506
43088,97526
43098,97550
43109,97564
43120,97587
43130,97605
43140,97619
43150,97636
43160,97645
43170,97664
43180,97684
43190,97696
43200,97712
43210,97717
43220,97706
43231,97666
43241,97579
43251,97434
43261,97213
43271,96957
43281,96763
43291,96631
43301,96553
43311,96515
43322,96498
43332,96503
43343,96530
43353,96566
43363,96599
43373,96641
43383,96681
43393,96712
43403,96736
43413,96760
43423,96782
43433,96812
43443,96846
43454,96881
43464,96926
43474,96964
43484,97007
43494,97031
43504,97048
43514,97055
43524,97049
43535,97034
43545,97022
43555,97011
43566,97011
43576,97014
43586,97014
43596,97032
43606,97047
43616,97079
43626,97102
43636,97141
43646,97182
43656,97220
43667,97267
43677,97307
43687,97341
43697,97377
43707,97411
43717,97434
43727,97464
43737,97483
43748,97502
43758,97519
43768,97534
43779,97553
43789,97565
43799,97583
43809,97606
43819,97622
43829,97642
43839,97657
43849,97669
43859,97682
43869,97695
43879,97709
43890,97711
43900,97682
43910,97607
43920,97474
43930,97272
43940,97003
43950,96779
43961,96625
43971,96534
43981,96492
43992,96472
44002,96478
44012,96493
44022,96525
44032,96561
44042,96601
44052,96644
44062,96680
44072,96714
44082,96747
44092,96777
44103,96802
44113,96832
44123,96869
44133,96911
44143,96957
44153,96996
44163,97032
44174,97059
44184,97081
44194,97095
44204,97097
44215,97092
44225,97084
44235,97077
44245,97077
44255,97084
44265,97093
44275,97114
44285,97132
44295,97167
44306,97204
44316,97253
44326,97302
44336,97351
44346,97398
44356,97449
44366,97489
44376,97525
44387,97555
44397,97588
44407,97602
44417,97630
44428,97646
44438,97666
44448,97689
44458,97702
44468,97721
44478,97738
44488,97758
44498,97771
44508,97787
44518,97797
44528,97811
44539,97819
44549,97831
44559,97845
44569,97851
44579,97853
44589,97834
44600,97762
44610,97642
44620,97461
44630,97214
44640,96962
44651,96790
44661,96683
44671,96620
44681,96603
44691,96605
44701,96627
44711,96660
44721,96701
44731,96748
44741,96795
44751,96834
44761,96874
44772,96901
44782,96921
44792,96949
44802,96974
44812,97015
44823,97059
44833,97110
44843,97152
44853,97188
44864,97208
44874,97221
44884,97230
44894,97231
44904,97229
44914,97234
44924,97237
44934,97244
44944,97256
44954,97274
44964,97285
44974,97313
44985,97343
44995,97378
45005,97417
45015,97450
45025,97486
45036,97524
45046,97558
45056,97588
45066,97620
45076,97636
45087,97659
45097,97670
45107,97689
45117,97711
45127,97726
45137,97745
45147,97766
45157,97786
45167,97799
45177,97810
45188,97827
45197,97836
45208,97849
45218,97863
45228,97880
45238,97889
45249,97905
45259,97914
45269,97912
45279,97884
45289,97814
45299,97694
45309,97504
45320,97262
45330,97017
45340,96845
45350,96742
45360,96691
45370,96678
45380,96695
45390,96725
45400,96770
45410,96824
45420,96878
45431,96936
45441,96985
45451,97028
45462,97068
45472,97104
45482,97137
45492,97178
45502,97224
45512,97269
45522,97315
45532,97345
45542,97366
45553,97377
45563,97372
45573,97363
45583,97354
45593,97339
45603,97326
45613,97320
45623,97313
45633,97321
45643,97335
45653,97353
45664,97377
45675,97407
45685,97444
45695,97480
45705,97513
45715,97559
45725,97590
45735,97623
45745,97642
45755,97672
45766,97702
45776,97716
45786,97735
45796,97756
45806,97777
45816,97793
45826,97810
45836,97827
45846,97843
45856,97863
45866,97879
45876,97889
45888,97898
45898,97912
45908,97927
45918,97939
45928,97952
45938,97947
45948,97919
45958,97843
45968,97713
45978,97522
45989,97280
45999,97038
46009,96879
46019,96786
46029,96743
46039,96740
46049,96758
46059,96784
46069,96818
46079,96859
46090,96895
46100,96934
46110,96977
46121,97021
46131,97055
46141,97089
46151,97123
46161,97165
46171,97209
46181,97252
46191,97290
46201,97320
46211,97343
46221,97353
46232,97353
46242,97344
46252,97333
46262,97316
46272,97301
46282,97289
46292,97292
46303,97295
46313,97306
46323,97321
46333,97346
46344,97374
46354,97411
46364,97450
46374,97480
46384,97516
46394,97548
46404,97581
46414,97616
46424,97636
46434,97663
46444,97685
46455,97709
46465,97731
46475,97751
46485,97765
46495,97783
46505,97802
46516,97814
46526,97831
46536,97838
46546,97846
46556,97861
46566,97872
46576,97884
46587,97900
46597,97912
46607,97917
46617,97906
46627,97849
46637,97744
46647,97573
46657,97329
46667,97058
46677,96855
46687,96725
46698,96659
46708,96630
46718,96628
46729,96647
46739,96682
46749,96721
46759,96767
46769,96819
46779,96869
46789,96918
46799,96950
46810,96984
46820,97011
46830,97036
46840,97071
46850,97116
46860,97164
46870,97209
46880,97250
46890,97278
46900,97297
46910,97306
46921,97312
46931,97305
46942,97292
46952,97288
46962,97287
46972,97297
46982,97299
46992,97316
47002,97333
47012,97356
47022,97394
47033,97429
47043,97465
47053,97512
47063,97544
47073,97587
47083,97623
47093,97652
47103,97673
47113,97702
47123,97724
47133,97754
47144,97769
47155,97788
47165,97803
47175,97822
47185,97833
47195,97843
47205,97857
47215,97870
47225,97889
47235,97899
47245,97912
47256,97925
47266,97934
47276,97946
47286,97956
47296,97957
47306,97938
47316,97884
47326,97778
47336,97612
47346,97392
47356,97132
47368,96932
47378,96811
47388,96744
47398,96723
47408,96727
47418,96745
47428,96779
47438,96821
47448,96873
47458,96919
47468,96973
47479,97022
47489,97063
47499,97095
47509,97132
47519,97161
47529,97195
47539,97235
47549,97274
47559,97317
47569,97345
47580,97369
47590,97383
47601,97392
47611,97403
47621,97390
47631,97379
47641,97366
47651,97357
47662,97352
47671,97358
47681,97366
47691,97378
47701,97402
47712,97426
47722,97458
47732,97492
47742,97526
47752,97564
47762,97596
47772,97642
47782,97673
47793,97709
47803,97735
47813,97759
47824,97778
47834,97802
47844,97817
47854,97834
47864,97850
47874,97872
47884,97878
47894,97888
47904,97906
47914,97927
47924,97934
47935,97951
47945,97965
47955,97973
47965,97984
47975,97994
47985,98000
47995,97996
48006,97963
48016,97888
48026,97765
48037,97581
48047,97343
48057,97108
48067,96951
48077,96852
48087,96803
48097,96797
48107,96812
48117,96843
48127,96894
48137,96954
48148,97017
48158,97079
48168,97137
48178,97190
48188,97237
48198,97276
48208,97315
48219,97360
48229,97411
48239,97457
48249,97496
48259,97526
48270,97546
48280,97554
48290,97557
48300,97555
48310,97554
48320,97546
48330,97543
48340,97541
48350,97538
48360,97546
48371,97564
48381,97581
48391,97609
48401,97638
48411,97664
48421,97698
48432,97723
48442,97747
48452,97772
48462,97796
48472,97823
48483,97841
48493,97857
48503,97874
48513,97894
48523,97916
48533,97930
48543,97948
48553,97952
48563,97963
48573,97977
48583,97987
48593,98001
48604,98014
48614,98022
48624,98032
48634,98040
48645,98055
48655,98062
48665,98061
48675,98054
48685,98014
48695,97927
48705,97796
48716,97615
48726,97390
48736,97176
48746,97028
48756,96943
48766,96908
48776,96898
48786,96916
48796,96955
48806,97012
48816,97087
48827,97154
48837,97224
48847,97291
48858,97349
48868,97398
48878,97444
48888,97490
48898,97533
48908,97585
48918,97626
48928,97660
48938,97680
48949,97687
48959,97687
48969,97680
48979,97668
48989,97657
48999,97651
49009,97642
49019,97637
49029,97638
49039,97652
49049,97666
49059,97686
49070,97704
49081,97732
49091,97760
49101,97786
49111,97812
49121,97841
49131,97867
49141,97892
49151,97912
49161,97929
49171,97941
49182,97964
49192,97978
49202,97990
49212,98005
49222,98028
49232,98045
49242,98063
49252,98081
49262,98096
49272,98112
49283,98120
49293,98128
49304,98137
49314,98145
49324,98145
49334,98129
49344,98078
49354,97986
49364,97851
49374,97671
49384,97457
49394,97250
49404,97111
49415,97037
49425,96999
49435,96998
49445,97020
49455,97064
49465,97117
49475,97178
49485,97240
49495,97304
49506,97359
49516,97404
49527,97448
49536,97493
49547,97525
49557,97571
49567,97609
49577,97645
49587,97668
49597,97688
49607,97697
49617,97706
49627,97703
49637,97699
49648,97683
49658,97677
49668,97671
49678,97677
49688,97678
49698,97692
49709,97705
49719,97727
49729,97742
49739,97771
49749,97796
49760,97821
49770,97848
49780,97870
49790,97896
49800,97917
49810,97934
49820,97953
49830,97970
49840,97988
49850,97996
49860,98013
49871,98025
49881,98036
49891,98049
49901,98063
49911,98069
49922,98080
49932,98089
49942,98093
49952,98107
49962,98116
49972,98126
49983,98129
49993,98120
50003,98085
50013,98011
50023,97888
50033,97708
50043,97481
50053,97241
50063,97074
50073,96972
50083,96911
50094,96895
50104,96900
50114,96930
50124,96975
50135,97023
50145,97068
50155,97125
50165,97176
50175,97221
50185,97259
50196,97296
50206,97328
50216,97372
50226,97411
50236,97456
50246,97496
50256,97529
50266,97556
50276,97569
50286,97578
50296,97582
50307,97577
50317,97564
50327,97553
50337,97547
50348,97546
50358,97551
50368,97555
50378,97571
50388,97593
50398,97614
50408,97638
50418,97672
50429,97702
50439,97732
50449,97761
50459,97791
50469,97816
50479,97836
50489,97860
50499,97882
50509,97893
50519,97906
50529,97921
50540,97938
50550,97947
50561,97959
50571,97966
50581,97978
50591,97987
50601,97999
50611,98014
50622,98025
50631,98032
50642,98045
50652,98055
50662,98048
50672,98032
50682,97973
50692,97870
50702,97712
50712,97499
50722,97263
50732,97074
50742,96951
50753,96879
50763,96851
50774,96846
50784,96869
50794,96910
50804,96957
50814,97006
50824,97052
50834,97104
50844,97157
50854,97196
50864,97232
50875,97275
50885,97313
50895,97362
50905,97409
50915,97442
50925,97474
50935,97500
50945,97519
50955,97528
50966,97533
50976,97528
50987,97516
50997,97513
51007,97508
51017,97507
51027,97511
51037,97518
51047,97526
51057,97544
51067,97574
51077,97600
51087,97629
51098,97664
51108,97699
51118,97722
51128,97754
51138,97778
51148,97804
51158,97822
51168,97842
51178,97867
51188,97885
51199,97901
51209,97916
51219,97925
51230,97934
51240,97948
51250,97962
51260,97972
51270,97985
51280,97998
51290,98014
51300,98024
51310,98033
51320,98045
51331,98049
51341,98027
51351,97977
51361,97877
51371,97715
51381,97507
51391,97269
51401,97072
51412,96954
51422,96883
51432,96856
51442,96861
51453,96883
51463,96913
51473,96962
51483,97012
51493,97074
51503,97130
51513,97179
51523,97238
51533,97274
51543,97310
51553,97358
51564,97401
51574,97448
51584,97491
51594,97515
51604,97531
51614,97532
51625,97524
51635,97511
51645,97499
51655,97480
51665,97464
51676,97456
51686,97458
51696,97464
51706,97475
51716,97499
51726,97517
51736,97549
51746,97577
51756,97611
51766,97642
51776,97676
51787,97713
51797,97745
51807,97779
51817,97798
51827,97821
51838,97835
51848,97848
51858,97857
51868,97865
51878,97875
51888,97882
51899,97895
51909,97906
51919,97914
51929,97928
51939,97937
51949,97948
51959,97961
51969,97970
51979,97975
51989,97973
51999,97933
52010,97861
52020,97729
52030,97554
52040,97318
52050,97099
52061,96948
52071,96858
52081,96803
52091,96789
52101,96808
52111,96841
52122,96883
52132,96929
52142,96987
52152,97043
52162,97100
52172,97152
52182,97199
52192,97250
52202,97295
52212,97351
52223,97411
52233,97459
52243,97505
52253,97529
52263,97547
52274,97559
52284,97558
52294,97547
52304,97535
52314,97530
52325,97526
52335,97530
52345,97534
52355,97545
52365,97558
52375,97579
52385,97598
52395,97626
52405,97659
52415,97692
52425,97726
52436,97758
52446,97791
52456,97818
52466,97845
52476,97867
52487,97886
52497,97906
52507,97931
52517,97941
52527,97959
52537,97976
52548,97991
52558,98001
52568,98014
52578,98033
52588,98040
52598,98054
52608,98068
52618,98079
52628,98086
52638,98081
52648,98051
52659,97985
52669,97869
52679,97704
52689,97486
52700,97260
52710,97085
52720,96975
52730,96918
52740,96903
52750,96912
52760,96939
52770,96976
52780,97026
52791,97082
52801,97134
52811,97189
52821,97227
52831,97271
52841,97305
52851,97339
52861,97379
52871,97425
52881,97466
52891,97502
52902,97540
52912,97562
52923,97582
52933,97593
52943,97593
52953,97589
52963,97578
52973,97577
52983,97573
52993,97576
53003,97579
53013,97587
53024,97605
53034,97619
53044,97643
53054,97662
53064,97694
53074,97725
53084,97756
53094,97776
53104,97798
53114,97821
53124,97839
53135,97864
53146,97882
53156,97904
53166,97920
53176,97938
53186,97956
53196,97969
53206,97988
53216,98004
53227,98010
53236,98025
53247,98031
53257,98038
53267,98052
53277,98063
53287,98060
53297,98036
53307,97977
53317,97875
53327,97720
53337,97526
53348,97297
53359,97114
53369,96996
53379,96926
53389,96899
53399,96910
53409,96936
53419,96976
53429,97030
53439,97082
53449,97128
53459,97176
53469,97217
53480,97261
53490,97295
53500,97331
53510,97374
53520,97419
53530,97463
53540,97502
53550,97533
53561,97565
53571,97585
53581,97597
53591,97598
53602,97600
53612,97596
53622,97593
53632,97590
53642,97598
53652,97609
53662,97618
53672,97640
53682,97666
53692,97688
53702,97713
53712,97737
53723,97768
53733,97796
53743,97825
53753,97854
53763,97871
53774,97892
53784,97915
53794,97937
53804,97955
53814,97971
53825,97987
53835,97999
53845,98017
53855,98033
53865,98045
53875,98061
53885,98078
53895,98087
53905,98097
53915,98107
53925,98109
53935,98119
53945,98112
53956,98079
53966,98014
53976,97902
53987,97747
53997,97535
54007,97316
54017,97147
54027,97045
54037,96990
54047,96972
54058,96985
54068,97014
54078,97063
54088,97113
54098,97168
54108,97222
54118,97265
54128,97313
54138,97349
54148,97385
54158,97418
54168,97464
54179,97510
54189,97547
54199,97584
54210,97608
54220,97634
54230,97640
54240,97648
54250,97642
54260,97634
54270,97626
54280,97621
54290,97616
54301,97615
54311,97627
54321,97641
54331,97658
54341,97679
54351,97700
54361,97724
54371,97754
54381,97783
54391,97810
54401,97835
54411,97856
54423,97879
54433,97894
54443,97919
54453,97936
54463,97951
54473,97963
54483,97982
54493,97998
54503,98008
54513,98015
54524,98032
54534,98041
54544,98054
54554,98068
54564,98075
54574,98084
54584,98082
54594,98070
54604,98013
54614,97924
54624,97789
54635,97603
54646,97387
54656,97195
54666,97067
54676,96986
54686,96952
54696,96948
54706,96976
54716,97005
54726,97051
54736,97102
54746,97154
54757,97202
54767,97245
54777,97286
54787,97328
54797,97371
54807,97426
54817,97478
54827,97526
54837,97560
54848,97591
54858,97609
54868,97616
54879,97620
54889,97617
54899,97614
54909,97604
54919,97590
54929,97597
54939,97604
54949,97614
54959,97629
54969,97650
54980,97671
54990,97692
55000,97724
55010,97754
55020,97778
55030,97810
55040,97829
55050,97854
55061,97876
55071,97891
55081,97915
55091,97931
55102,97951
55112,97972
55122,97979
55132,97995
55142,98009
55152,98028
55162,98036
55172,98044
55182,98054
55192,98064
55202,98074
55213,98080
55223,98064
55233,98023
55243,97939
55253,97801
55263,97621
55274,97397
55284,97181
55294,97046
55304,96958
55314,96922
55325,96914
55335,96927
55345,96963
55355,96994
55365,97038
55375,97074
55385,97111
55395,97145
55405,97177
55415,97204
55425,97234
55436,97269
55446,97317
55456,97359
55466,97407
55476,97447
55487,97473
55497,97499
55507,97517
55517,97518
55527,97511
55537,97506
55547,97493
55558,97485
55568,97484
55578,97488
55588,97490
55598,97499
55608,97516
55618,97533
55628,97554
55638,97583
55648,97610
55658,97635
55669,97671
55679,97697
55689,97719
55700,97747
55710,97770
55720,97793
55730,97814
55740,97826
55750,97851
55760,97865
55771,97880
55781,97899
55791,97907
55801,97916
55811,97927
55821,97933
55831,97934
55841,97940
55851,97937
55861,97916
55871,97846
55882,97720
55892,97525
55902,97263
55913,97034
55923,96874
55933,96771
55943,96710
55953,96676
55963,96675
55973,96684
55983,96701
55994,96720
56004,96737
56014,96762
56024,96772
56034,96787
56044,96798
56054,96808
56064,96820
56074,96834
56084,96857
56094,96877
56105,96896
56115,96915
56126,96921
56136,96926
56146,96935
56156,96936
56166,96928
56176,96920
56186,96916
56196,96918
56207,96922
56217,96928
56227,96939
56237,96949
56247,96968
56257,96995
56267,97031
56277,97081
56287,97116
56297,97165
56307,97209
56318,97250
56328,97287
56339,97321
56349,97350
56359,97382
56369,97410
56379,97442
56389,97471
56399,97495
56409,97526
56419,97557
56430,97577
56440,97601
56450,97622
56460,97644
56470,97672
56480,97694
56490,97712
56500,97719
56510,97712
56520,97676
56530,97572
56540,97399
56552,97161
56562,96936
56572,96773
56582,96670
56592,96616
56602,96592
56612,96584
56622,96595
56632,96616
56642,96639
56653,96658
56663,96687
56673,96708
56683,96729
56693,96730
56703,96740
56713,96746
56723,96751
56733,96753
56743,96775
56753,96792
56765,96802
56775,96822
56785,96830
56795,96836
56805,96839
56815,96837
56825,96822
56835,96812
56845,96809
56855,96807
56865,96810
56875,96817
56886,96832
56896,96847
56906,96870
56916,96895
56926,96918
56936,96951
56946,96991
56956,97034
56966,97073
56977,97108
56988,97147
56998,97184
57008,97214
57018,97244
57028,97267
57038,97293
57048,97315
57058,97337
57068,97361
57078,97388
57088,97418
57098,97446
57109,97472
57119,97497
57129,97521
57139,97541
57149,97565
57159,97586
57169,97595
57179,97603
57190,97582
57200,97496
57211,97329
57221,97088
57231,96861
57241,96699
57251,96600
57261,96539
57271,96507
57281,96488
57291,96491
57301,96495
57312,96513
57322,96539
57332,96564
57342,96590
57352,96614
57362,96635
57372,96647
57382,96665
57392,96665
57403,96680
57413,96697
57423,96706
57433,96723
57444,96726
57454,96727
57464,96724
57474,96714
57484,96706
57494,96686
57504,96682
57514,96672
57524,96670
57534,96676
57544,96684
57555,96703
57565,96721
57575,96748
57585,96773
57595,96805
57606,96843
57616,96878
57626,96917
57636,96955
57646,96986
57656,97021
57667,97053
57677,97087
57687,97124
57697,97164
57707,97201
57717,97228
57727,97253
57737,97277
57747,97298
57757,97322
57767,97343
57777,97369
57788,97393
57798,97408
57808,97429
57819,97443
57829,97458
57839,97444
57849,97406
57859,97303
57869,97114
57879,96880
57889,96681
57899,96549
57910,96462
57920,96399
57930,96362
57940,96347
57950,96347
57960,96365
57970,96385
57980,96414
57990,96445
58000,96475
58011,96506
58022,96531
58032,96563
58042,96597
58052,96631
58062,96672
58072,96715
58082,96752
58092,96782
58102,96797
58112,96795
58122,96778
58132,96753
58143,96715
58153,96665
58163,96622
58173,96598
58183,96582
58193,96579
58203,96585
58213,96601
58223,96626
58234,96650
58244,96673
58255,96705
58265,96738
58275,96769
58285,96803
58295,96840
58305,96876
58315,96914
58325,96956
58335,96993
58345,97038
58355,97078
58366,97112
58376,97145
58386,97179
58396,97205
58406,97230
58416,97251
58426,97279
58436,97290
58446,97314
58457,97336
58468,97358
58478,97374
58488,97379
58498,97342
58508,97245
58518,97056
58528,96821
58538,96618
58548,96478
58558,96389
58568,96330
58578,96303
58589,96292
58599,96299
58609,96318
58619,96335
58629,96364
58639,96395
58649,96415
58659,96436
58670,96461
58680,96483
58690,96503
58701,96533
58711,96563
58721,96606
58731,96655
58741,96701
58751,96745
58761,96778
58771,96806
58781,96822
58791,96827
58801,96832
58812,96829
58822,96830
58832,96827
58842,96840
58852,96856
58862,96885
58872,96922
58883,96960
58893,97012
58903,97066
58913,97120
58924,97175
58934,97228
58944,97279
58954,97330
58964,97378
58974,97427
58984,97466
58994,97491
59004,97519
59014,97545
59024,97571
59034,97586
59045,97616
59055,97644
59065,97665
59075,97682
59086,97702
59096,97726
59106,97744
59116,97764
59126,97787
59136,97809
59147,97820
59157,97815
59167,97779
59177,97690
59187,97531
59197,97303
59207,97026
59217,96808
59227,96671
59237,96614
59247,96601
59257,96616
59268,96660
59278,96721
59288,96791
59299,96861
59309,96939
59319,97010
59329,97075
59339,97130
59349,97177
59359,97218
59369,97265
59380,97307
59390,97355
59400,97404
59410,97446
59420,97479
59430,97506
59440,97520
59450,97523
59460,97529
59470,97528
59480,97532
59490,97538
59501,97537
59512,97544
59522,97552
59532,97573
59542,97590
59552,97619
59562,97648
59572,97680
59582,97715
59592,97751
59602,97779
59613,97806
59623,97829
59633,97848
59643,97866
59653,97889
59663,97909
59673,97923
59683,97941
59693,97959
59703,97972
59713,97988
59724,98007
59735,98028
59745,98039
59755,98053
59765,98064
59775,98078
59785,98088
59795,98098
59805,98113
59815,98120
59825,98124
59835,98115
59846,98082
59856,98008
59866,97893
59876,97739
59886,97549
59896,97343
59906,97165
59916,97061
59926,97016
59936,97025
59947,97061
59957,97116
59968,97180
59978,97257
59988,97331
59998,97397
END
