5974,98647
5984,98644
5994,98650
6004,98659
6014,98658
6024,98666
6034,98679
6044,98687
6054,98702
6065,98719
6075,98727
6085,98739
6095,98747
6105,98758
6115,98766
6125,98777
6135,98786
6145,98791
6155,98799
6165,98801
6176,98805
6187,98809
6197,98814
6207,98818
6217,98817
6227,98811
6237,98802
6247,98765
6257,98713
6267,98644
6277,98574
6287,98504
6297,98443
6308,98410
6318,98394
6328,98408
6338,98426
6348,98454
6358,98478
6368,98501
6378,98528
6388,98540
6398,98565
6408,98568
6419,98579
6430,98586
6440,98601
6450,98614
6460,98633
6470,98643
6480,98656
6490,98656
6500,98660
6510,98665
6520,98656
6530,98650
6540,98652
6551,98643
6561,98641
6571,98639
6581,98639
6591,98645
6601,98652
6611,98662
6621,98675
6631,98690
6642,98695
6652,98713
6662,98723
6672,98735
6683,98745
6693,98755
6703,98766
6713,98775
6723,98783
6733,98784
6743,98793
6753,98805
6763,98810
6773,98816
6783,98823
6793,98830
6804,98833
6814,98838
6824,98827
6834,98801
6844,98761
6854,98701
6865,98627
6875,98557
6885,98503
6895,98467
6905,98448
6916,98448
6926,98469
6936,98498
6946,98522
6956,98549
6966,98575
6976,98600
6986,98612
6996,98631
7006,98642
7016,98655
7026,98661
7036,98675
7047,98686
7057,98699
7067,98707
7077,98712
7087,98716
7098,98710
7108,98718
7118,98710
7128,98699
7138,98695
7148,98690
7158,98696
7168,98694
7179,98701
7189,98706
7199,98715
7209,98725
7219,98733
7229,98744
7239,98755
7249,98769
7259,98780
7269,98793
7279,98808
7289,98813
7300,98823
7310,98835
7321,98838
7331,98848
7341,98856
7351,98864
7361,98874
7371,98878
7381,98889
7391,98886
7401,98887
7411,98880
7422,98866
7432,98829
7442,98769
7452,98700
7462,98621
7472,98560
7482,98508
7492,98483
7502,98475
7512,98494
7522,98514
7532,98543
7544,98570
7554,98605
7564,98635
7574,98659
7584,98677
7594,98692
7604,98713
7614,98729
7624,98741
7634,98754
7644,98768
7654,98776
7665,98780
7675,98777
7685,98776
7695,98771
7705,98763
7715,98751
7725,98743
7735,98740
7745,98730
7755,98733
7765,98732
7777,98737
7787,98739
7797,98745
7807,98756
7817,98766
7827,98777
7837,98785
7847,98794
7857,98802
7867,98810
7877,98820
7888,98826
7897,98825
7908,98829
7918,98835
7928,98847
7938,98850
7948,98852
7958,98858
7968,98864
7978,98863
7988,98861
7999,98846
8009,98815
8020,98766
8030,98691
8040,98608
8050,98509
8060,98430
8070,98353
8080,98304
8090,98293
8100,98301
8110,98325
8120,98358
8130,98401
8141,98439
8151,98477
8161,98505
8171,98526
8181,98548
8191,98565
8201,98585
8211,98602
8221,98621
8232,98637
8242,98645
8252,98650
8263,98647
8273,98643
8283,98633
8293,98626
8303,98613
8313,98599
8323,98599
8333,98593
8343,98598
8353,98606
8363,98616
8373,98623
8383,98634
8394,98650
8404,98664
8414,98680
8424,98698
8434,98714
8444,98729
8455,98744
8465,98753
8475,98768
8485,98779
8495,98796
8506,98809
8516,98815
8526,98831
8536,98833
8546,98842
8556,98843
8566,98841
8576,98824
8586,98785
8596,98726
8606,98640
8616,98553
8626,98461
8637,98387
8647,98336
8657,98312
8667,98312
8678,98334
8688,98381
8698,98418
8708,98461
8718,98502
8728,98529
8738,98554
8748,98572
8758,98592
8769,98608
8779,98626
8789,98639
8799,98661
8809,98666
8819,98677
8829,98681
8839,98685
8849,98685
8859,98682
8869,98678
8879,98670
8890,98668
8900,98665
8911,98660
8921,98666
8931,98670
8941,98678
8951,98689
8961,98702
8971,98716
8981,98723
8991,98732
9001,98749
9012,98761
9022,98773
9032,98786
9042,98796
9052,98807
9062,98818
9072,98825
9082,98832
9092,98843
9102,98850
9112,98857
9122,98863
9133,98856
9143,98846
9154,98811
9164,98755
9174,98684
9184,98596
9194,98506
9204,98418
9214,98345
9224,98311
9234,98308
9244,98328
9254,98360
9264,98395
9275,98442
9285,98476
9295,98510
9305,98531
9315,98552
9325,98566
9335,98583
9345,98594
9355,98607
9366,98622
9376,98640
9386,98652
9397,98663
9407,98669
9417,98674
9427,98673
9437,98673
9447,98668
9457,98664
9467,98665
9477,98657
9487,98662
9497,98661
9507,98667
9518,98674
9528,98681
9538,98689
9548,98704
9558,98717
9568,98733
9578,98743
9589,98763
9599,98774
9609,98785
9619,98798
9629,98802
9639,98813
9650,98823
9660,98829
9670,98837
9680,98844
9690,98852
9700,98852
9710,98851
9720,98827
9730,98791
9740,98727
9750,98646
9760,98558
9771,98479
9781,98409
9791,98361
9801,98346
9812,98346
9822,98371
9832,98408
9842,98449
9852,98487
9862,98516
9872,98546
9882,98558
9893,98577
9903,98586
9913,98602
9923,98615
9933,98626
9943,98649
9953,98660
9963,98670
9973,98683
9983,98682
9993,98683
10003,98683
10014,98688
10024,98678
10034,98676
10045,98674
10055,98672
10065,98680
10075,98682
10085,98694
10095,98699
10105,98709
10115,98719
10125,98735
10135,98744
10146,98758
10156,98767
10166,98779
10176,98788
10186,98801
10196,98817
10206,98823
10216,98833
10226,98839
10236,98848
10246,98854
10257,98858
10268,98861
10278,98861
10288,98860
10298,98843
10308,98812
10318,98754
10328,98675
10338,98590
10348,98500
10358,98427
10368,98373
10379,98344
10389,98343
10399,98370
10409,98401
10419,98441
10429,98474
10439,98506
10449,98533
10459,98556
10469,98566
10479,98574
10489,98587
10500,98596
10511,98614
10521,98629
10531,98644
10541,98657
10551,98664
10561,98671
10571,98671
10581,98674
10591,98666
10601,98663
10611,98661
10621,98653
10632,98650
10642,98644
10652,98643
10662,98635
10672,98638
10682,98636
10692,98648
10702,98657
10713,98660
10723,98672
10733,98683
10743,98690
10753,98700
10764,98717
10774,98725
10784,98737
10794,98754
10804,98764
10814,98773
10824,98784
10834,98788
10844,98805
10854,98808
10864,98811
10874,98809
10885,98795
10895,98753
10905,98685
10915,98600
10925,98501
10935,98405
10945,98318
10956,98258
10966,98237
10976,98231
10986,98256
10996,98286
11006,98327
11017,98376
11027,98417
11037,98452
11047,98477
11057,98497
11067,98516
11077,98533
11087,98549
11097,98567
11107,98583
11117,98596
11127,98608
11138,98614
11148,98618
11158,98618
11168,98616
11179,98611
11189,98606
11199,98603
11209,98600
11219,98602
11229,98605
11239,98615
11249,98622
11259,98632
11270,98639
11280,98654
11290,98661
11300,98681
11310,98692
11320,98709
11330,98722
11340,98738
11350,98751
11360,98760
11370,98768
11380,98782
11390,98789
11401,98799
11412,98808
11422,98817
11432,98823
11442,98828
11452,98828
11462,98822
11472,98804
11482,98764
11492,98702
11502,98623
11512,98529
11523,98428
11533,98347
11543,98287
11553,98268
11563,98268
11573,98287
11583,98325
11593,98363
11603,98407
11613,98447
11623,98480
11634,98499
11645,98513
11655,98530
11665,98544
11675,98562
11685,98575
11695,98591
11705,98606
11715,98615
11725,98624
11735,98626
11745,98630
11755,98621
11766,98615
11776,98610
11786,98604
11796,98606
11806,98606
11816,98616
11826,98623
11836,98630
11846,98636
11857,98654
11867,98667
11877,98675
11888,98693
11898,98709
11908,98727
11918,98743
11928,98752
11938,98772
11948,98778
11958,98788
11968,98797
11978,98807
11988,98813
11998,98820
12009,98831
12019,98841
12029,98848
12039,98849
12049,98848
12059,98835
12069,98804
12080,98745
12090,98671
12100,98587
12110,98495
12120,98415
12131,98348
12141,98316
12151,98313
12161,98325
12171,98354
12181,98393
12191,98428
12201,98462
12211,98496
12221,98524
12231,98539
12241,98550
12251,98566
12262,98579
12272,98600
12282,98615
12292,98631
12302,98643
12313,98661
12323,98667
12333,98673
12343,98676
12353,98672
12363,98669
12374,98668
12384,98664
12394,98666
12404,98668
12414,98675
12424,98681
12434,98694
12444,98697
12454,98713
12464,98723
12474,98742
12484,98751
12495,98763
12505,98779
12515,98789
12525,98805
12536,98814
12546,98832
12556,98840
12566,98851
12576,98855
12586,98867
12596,98872
12606,98885
12616,98886
12626,98893
12637,98895
12647,98890
12657,98884
12667,98855
12677,98807
12687,98744
12697,98660
12707,98576
12717,98494
12727,98427
12737,98395
12747,98385
12758,98387
12769,98409
12779,98447
12789,98477
12799,98511
12809,98541
12819,98562
12829,98583
12839,98598
12849,98606
12859,98618
12869,98630
12879,98641
12890,98658
12900,98675
12910,98687
12920,98693
12930,98695
12940,98696
12950,98699
12960,98702
12970,98704
12981,98700
12991,98701
13001,98706
13011,98714
13021,98721
13032,98727
13042,98739
13052,98751
13062,98761
13072,98775
13082,98785
13092,98799
13102,98806
13112,98819
13122,98826
13132,98839
13142,98851
13152,98858
13163,98866
13173,98871
13183,98885
13193,98892
13203,98903
13214,98901
13224,98911
13234,98912
13244,98917
13254,98921
13264,98916
13275,98913
13285,98879
13295,98822
13305,98750
13315,98661
13325,98568
13335,98482
13345,98435
13355,98408
13365,98403
13375,98418
13385,98440
13395,98477
13406,98515
13416,98553
13426,98584
13437,98608
13447,98622
13457,98636
13467,98648
13477,98654
13487,98666
13497,98681
13507,98697
13517,98713
13528,98724
13538,98735
13548,98738
13558,98746
13568,98744
13578,98737
13588,98734
13598,98733
13608,98730
13618,98732
13628,98733
13638,98739
13648,98751
13660,98759
13670,98766
13680,98780
13690,98790
13700,98801
13710,98812
13720,98831
13730,98835
13740,98849
13750,98858
13760,98871
13771,98876
13780,98879
13791,98888
13801,98901
13811,98900
13821,98909
13831,98922
13841,98932
13851,98939
13861,98945
13871,98945
13881,98946
13892,98948
13902,98933
13913,98911
13923,98858
13933,98801
13943,98721
13953,98641
13963,98560
13973,98506
13983,98475
13993,98464
14003,98479
14013,98504
14023,98530
14033,98566
14044,98593
14054,98626
14064,98645
14074,98657
14084,98678
14094,98693
14104,98700
14115,98718
14125,98733
14135,98749
14145,98759
14155,98771
14165,98779
14176,98780
14186,98785
14196,98785
14206,98782
14216,98782
14226,98774
14236,98781
14246,98784
14256,98790
14266,98795
14276,98805
14287,98810
14297,98824
14307,98838
14317,98847
14327,98856
14337,98871
14348,98880
14358,98895
14368,98903
14378,98917
14388,98931
14398,98940
14408,98953
14418,98956
14429,98962
14439,98971
14449,98976
14459,98983
14469,98988
14479,98995
14489,99004
14499,99006
14509,99008
14519,99011
14529,98998
14540,98977
14550,98940
14560,98884
14571,98819
14581,98755
14591,98699
14601,98653
14611,98636
14621,98635
14631,98647
14641,98667
14651,98690
14662,98717
14672,98743
14682,98769
14692,98786
14702,98805
14712,98822
14722,98831
14732,98842
14742,98859
14752,98867
14762,98881
14772,98892
14782,98895
14793,98901
14804,98898
14814,98900
14824,98895
14834,98889
14844,98887
14854,98880
14864,98884
14874,98888
14884,98895
14894,98896
14904,98905
14914,98918
14924,98922
14935,98935
14945,98944
14955,98953
14965,98960
14975,98973
14985,98978
14995,98984
15005,98993
15015,99005
15026,99013
15036,99017
15047,99024
15057,99028
15067,99032
15077,99039
15087,99050
15097,99050
15107,99054
15117,99059
15127,99060
15137,99056
15147,99045
15157,99028
15167,98993
15178,98944
15188,98884
15198,98817
15208,98764
15218,98728
15228,98703
15238,98700
15249,98710
15259,98729
15269,98751
15279,98773
15289,98796
15300,98816
15310,98830
15320,98844
15330,98851
15340,98859
15350,98873
15360,98881
15370,98893
15380,98901
15390,98907
15400,98914
15411,98918
15421,98921
15431,98915
15441,98905
15451,98904
15461,98895
15471,98890
15482,98894
15492,98891
15502,98897
15512,98899
15522,98905
15533,98913
15543,98924
15553,98932
15563,98941
15573,98949
15583,98957
15593,98969
15603,98979
15613,98994
15623,98999
15633,99008
15643,99013
15654,99025
15664,99031
15674,99037
15684,99049
15694,99055
15704,99061
15715,99065
15725,99071
15735,99077
15745,99085
15755,99087
15765,99078
15776,99046
15786,98999
15796,98928
15806,98849
15816,98764
15826,98678
15836,98606
15846,98570
15856,98562
15866,98559
15876,98576
15886,98601
15896,98635
15907,98672
15917,98702
15928,98724
15938,98743
15948,98755
15958,98770
15968,98789
15978,98808
15988,98827
15998,98846
16008,98868
16018,98871
16029,98883
16039,98886
16049,98885
16059,98882
16069,98884
16079,98880
16089,98877
16099,98880
16109,98878
16119,98882
16129,98895
16139,98893
16149,98905
16160,98913
16171,98923
16181,98931
16191,98941
16201,98952
16211,98967
16221,98972
16231,98985
16241,98998
16251,99011
16261,99018
16271,99029
16282,99038
16292,99049
16302,99062
16312,99068
16322,99068
16332,99076
16342,99079
16352,99088
16362,99092
16372,99090
16383,99072
16393,99034
16404,98986
16414,98915
16424,98842
16434,98770
16444,98710
16454,98667
16464,98657
16474,98664
16484,98689
16494,98720
16504,98748
16514,98781
16525,98806
16535,98826
16545,98845
16555,98868
16565,98883
16575,98897
16585,98910
16595,98921
16606,98938
16616,98949
16626,98965
16636,98970
16646,98981
16656,98984
16667,98980
16677,98981
16687,98981
16697,98976
16707,98976
16717,98971
16727,98973
16737,98974
16747,98982
16757,98988
16767,98997
16777,99002
16788,99015
16798,99025
16808,99035
16818,99049
16828,99063
16838,99066
16849,99074
16859,99086
16869,99093
16879,99100
16889,99104
16899,99112
16909,99120
16920,99129
16930,99135
16940,99138
16950,99145
16960,99149
16970,99152
16980,99157
16990,99153
17000,99137
17010,99107
17020,99060
17030,99007
17040,98949
17051,98888
17062,98841
17072,98811
17082,98797
17092,98806
17102,98822
17112,98847
17122,98870
17132,98896
17142,98921
17153,98941
17162,98956
17173,98970
17183,98978
17193,98989
17203,99002
17213,99011
17223,99026
17233,99036
17243,99043
17253,99049
17263,99052
17273,99055
17284,99052
17295,99046
17305,99043
17315,99039
17325,99035
17335,99029
17345,99031
17355,99033
17365,99035
17375,99039
17385,99049
17396,99053
17406,99065
17416,99076
17426,99085
17436,99098
17446,99106
17456,99113
17466,99129
17476,99136
17486,99149
17496,99158
17506,99161
17518,99165
17528,99171
17538,99173
17548,99183
17558,99188
17568,99188
17578,99193
17588,99199
17598,99197
17608,99190
17618,99170
17628,99132
17638,99083
17649,99019
17659,98968
17669,98917
17679,98874
17689,98857
17699,98852
17709,98861
17719,98878
17729,98897
17740,98918
17750,98941
17760,98965
17771,98980
17781,98995
17791,99006
17801,99010
17811,99029
17821,99041
17831,99055
17841,99056
17851,99067
17861,99070
17871,99065
17882,99059
17892,99055
17902,99050
17912,99038
17922,99034
17932,99026
17942,99028
17952,99031
17962,99029
17973,99033
17983,99038
17993,99046
18003,99050
18014,99064
18024,99072
18034,99085
18044,99098
18054,99110
18064,99120
18074,99126
18084,99136
18094,99141
18104,99149
18114,99152
18125,99159
18135,99169
18145,99173
18155,99177
18165,99179
18175,99187
18185,99185
18196,99189
18206,99173
18216,99155
18226,99118
18236,99066
18246,99000
18257,98941
18267,98882
18277,98835
18287,98812
18297,98802
18307,98804
18317,98817
18327,98841
18337,98866
18347,98892
18357,98913
18367,98939
18378,98950
18388,98968
18398,98979
18408,98988
18419,99004
18429,99012
18439,99026
18449,99032
18459,99039
18469,99045
18479,99049
18489,99038
18500,99039
18510,99030
18520,99020
18530,99021
18540,99015
18550,99018
18560,99009
18570,99024
18580,99032
18590,99038
18600,99048
18611,99062
18621,99074
18631,99083
18642,99094
18652,99098
18662,99112
18672,99117
18682,99128
18692,99135
18702,99143
18712,99148
18722,99164
18733,99165
18743,99169
18753,99171
18763,99180
18773,99186
18783,99177
18793,99168
18803,99139
18813,99093
18823,99038
18833,98970
18843,98885
18853,98821
18864,98761
18875,98721
18885,98705
18895,98701
18905,98718
18915,98740
18925,98769
18935,98802
18945,98828
18955,98852
18965,98866
18975,98884
18986,98891
18996,98899
19006,98912
19016,98924
19026,98942
19036,98953
19046,98959
19056,98970
19066,98970
19076,98968
19087,98965
19097,98964
19108,98964
19118,98954
19128,98954
19138,98955
19148,98952
19158,98957
19168,98964
19178,98979
19188,98983
19198,98999
19208,99010
19218,99021
19228,99030
19239,99039
19249,99056
19259,99063
19269,99080
19279,99089
19289,99100
19299,99113
19309,99120
19320,99128
19330,99128
19340,99135
19350,99136
19361,99141
19371,99143
19381,99141
19391,99128
19401,99094
19411,99038
19421,98972
19431,98895
19441,98815
19451,98742
19461,98688
19471,98670
19481,98662
19492,98667
19502,98687
19512,98714
19522,98742
19532,98768
19543,98797
19553,98816
19563,98835
19573,98845
19583,98862
19593,98869
19603,98887
19614,98897
19624,98910
19634,98914
19644,98925
19654,98930
19664,98930
19674,98932
19684,98929
19694,98924
19704,98923
19714,98918
19724,98917
19735,98920
19745,98921
19755,98925
19766,98930
19776,98945
19786,98954
19796,98968
19806,98980
19816,98986
19826,98995
19836,99007
19846,99021
19856,99028
19867,99038
19877,99047
19887,99060
19897,99068
19907,99078
19917,99086
19927,99093
19937,99095
19947,99102
19957,99107
19967,99108
19977,99102
19987,99084
19998,99040
20009,98981
20019,98907
20029,98826
20039,98746
20049,98671
20059,98628
20069,98601
20079,98603
20089,98611
20099,98627
20109,98656
20119,98684
20130,98714
20140,98735
20150,98760
20160,98771
20170,98780
20180,98793
20190,98805
20200,98819
20210,98827
20221,98843
20231,98849
20241,98858
20251,98862
20262,98863
20272,98859
20282,98857
20292,98859
20302,98855
20312,98848
20322,98849
20332,98849
20342,98857
20352,98861
20362,98870
20372,98873
20382,98876
20393,98888
20403,98895
20413,98906
20423,98912
20433,98932
20444,98938
20454,98951
20464,98961
20474,98974
20484,98984
20494,98998
20504,99005
20515,99010
20525,99014
20535,99021
20545,99024
20555,99023
20565,99028
20575,99021
20585,98992
20595,98950
20605,98887
20615,98800
20625,98692
20635,98598
20645,98522
20656,98466
20666,98433
20677,98422
20687,98420
20697,98431
20707,98456
20717,98478
20727,98507
20737,98527
20747,98550
20757,98566
20767,98574
20777,98596
20788,98608
20798,98630
20808,98657
20818,98676
20828,98700
20838,98716
20848,98725
20858,98730
20868,98728
20878,98724
20889,98710
20899,98698
20910,98696
20920,98696
20930,98697
20940,98702
20950,98715
20960,98721
20970,98732
20980,98749
20990,98768
21000,98786
21010,98812
21020,98828
21030,98844
21041,98862
21051,98878
21061,98892
21071,98902
21081,98917
21091,98935
21101,98950
21111,98962
21122,98985
21132,99009
21142,99028
21152,99044
21162,99055
21173,99070
21183,99064
21193,99045
21203,99011
21213,98942
21223,98858
21233,98757
21243,98661
21253,98582
21263,98531
21273,98491
21283,98474
21294,98475
21304,98484
21314,98503
21324,98527
21334,98557
21345,98580
21355,98597
21365,98611
21375,98627
21385,98636
21395,98647
21405,98660
21415,98668
21426,98684
21436,98683
21446,98682
21456,98670
21466,98659
21476,98633
21486,98606
21496,98585
21506,98569
21516,98555
21526,98549
21536,98549
21547,98566
21557,98575
21568,98588
21578,98605
21588,98620
21598,98643
21608,98660
21618,98685
21628,98710
21638,98740
21648,98761
21658,98785
21668,98801
21679,98814
21689,98823
21699,98836
21709,98854
21719,98864
21729,98879
21739,98886
21749,98901
21759,98908
21769,98914
21779,98909
21789,98892
21801,98857
21811,98779
21821,98672
21831,98562
21841,98472
21851,98394
21861,98345
21871,98319
21881,98311
21891,98321
21901,98331
21911,98355
21922,98379
21932,98408
21942,98438
21952,98463
21962,98478
21972,98492
21982,98511
21992,98528
22002,98548
22012,98570
22023,98592
22033,98614
22043,98631
22053,98637
22064,98643
22074,98637
22084,98639
22094,98632
22104,98634
22114,98632
22124,98633
22134,98640
22144,98649
22154,98658
22164,98675
22174,98695
22185,98716
22195,98737
22205,98751
22215,98780
22225,98796
22235,98817
22246,98840
22256,98854
22266,98867
22276,98878
22286,98894
22296,98906
22307,98922
22317,98931
22327,98941
22337,98953
22347,98965
22357,98976
22367,98981
22377,98985
22387,98976
22397,98963
22407,98919
22417,98844
22427,98740
22438,98624
22448,98539
22458,98464
22468,98415
22479,98388
22489,98382
22499,98395
22509,98417
22519,98447
22529,98475
22539,98503
22549,98531
22560,98546
22570,98558
22580,98565
22590,98582
22600,98597
22610,98615
22620,98636
22630,98661
22640,98678
22650,98694
22660,98708
22670,98713
22680,98717
22691,98721
22702,98726
22712,98724
22722,98723
22732,98722
22742,98732
22752,98743
22762,98751
22772,98769
22782,98787
22792,98801
22802,98820
22812,98837
22823,98857
22833,98876
22843,98886
22853,98903
22863,98914
22873,98923
22883,98932
22893,98947
22903,98956
22913,98958
22924,98964
22934,98972
22945,98979
22955,98988
22965,98992
22975,99002
22985,98999
22995,99006
23005,99005
23015,98985
23025,98944
23035,98878
23045,98786
23055,98680
23065,98589
23075,98521
23086,98476
23096,98452
23106,98446
23116,98450
23126,98469
23136,98493
23147,98518
23157,98541
23167,98569
23177,98585
23187,98595
23197,98602
23208,98608
23218,98624
23228,98637
23238,98660
23248,98676
23258,98699
23268,98718
23278,98725
23288,98736
23298,98742
23308,98744
23318,98743
23328,98738
23339,98748
23349,98751
23359,98756
23370,98763
23380,98780
23390,98793
23400,98807
23410,98824
23420,98840
23430,98858
23440,98872
23450,98891
23460,98902
23470,98922
23481,98933
23491,98950
23501,98959
23511,98968
23521,98977
23531,98990
23541,98995
23551,99006
23561,99011
23571,99017
23581,99032
23592,99035
23603,99041
23613,99044
23623,99045
23633,99044
23643,99013
23653,98972
23663,98898
23673,98803
23683,98690
23693,98592
23703,98527
23713,98482
23723,98468
23733,98465
23744,98475
23754,98502
23764,98541
23774,98571
23784,98602
23794,98622
23804,98638
23814,98652
23825,98659
23835,98672
23845,98679
23856,98695
23866,98717
23876,98735
23886,98754
23896,98762
23906,98776
23916,98784
23926,98785
23936,98787
23946,98780
23956,98784
23966,98783
23977,98785
23987,98795
23997,98802
24007,98816
24017,98830
24027,98848
24037,98864
24048,98879
24058,98894
24068,98909
24078,98921
24088,98935
24098,98943
24108,98953
24119,98965
24129,98977
24139,98988
24149,99000
24159,99007
24169,99013
24179,99023
24189,99031
24199,99044
24209,99053
24219,99058
24229,99068
24239,99070
24250,99073
24260,99072
24271,99063
24281,99029
24291,98978
24301,98904
24311,98820
24321,98733
24331,98645
24341,98593
24351,98559
24361,98553
24372,98560
24382,98581
24392,98607
24402,98636
24412,98670
24422,98700
24432,98723
24442,98745
24452,98762
24462,98769
24472,98785
24482,98805
24492,98823
24504,98836
24514,98848
24524,98858
24534,98865
24544,98872
24554,98867
24564,98863
24574,98856
24584,98853
24594,98844
24604,98841
24614,98843
24624,98849
24635,98858
24645,98877
24655,98888
24665,98903
24675,98917
24685,98931
24695,98946
24705,98960
24716,98972
24726,98987
24736,99002
24746,99012
24756,99024
24767,99039
24777,99049
24787,99059
24797,99070
24807,99076
24817,99092
24827,99092
24837,99104
24847,99107
24857,99109
24867,99115
24877,99121
24887,99103
24898,99076
24908,99025
24918,98960
24928,98878
24938,98795
24949,98713
24959,98663
24969,98640
24979,98639
24989,98649
24999,98678
25009,98708
25019,98745
25030,98776
25040,98806
25050,98830
25060,98850
25070,98861
25080,98872
25090,98885
25100,98901
25110,98920
25120,98937
25130,98946
25140,98955
25151,98959
25161,98957
25172,98957
25182,98956
25192,98948
25202,98942
25212,98936
25222,98936
25232,98934
25242,98938
25252,98948
25262,98952
25272,98964
25283,98974
25293,98985
25303,99001
25313,99013
25323,99028
25333,99039
25343,99050
25353,99058
25363,99068
25373,99081
25383,99085
25394,99096
25404,99108
25415,99118
25425,99125
25435,99128
25445,99142
25455,99147
25465,99156
25475,99155
25485,99159
25495,99153
25505,99136
25515,99093
25525,99035
25535,98953
25546,98854
25556,98761
25566,98689
25576,98636
25586,98616
25596,98602
25606,98613
25617,98638
25627,98670
25637,98700
25647,98725
25657,98758
25667,98785
25678,98810
25688,98825
25698,98837
25708,98853
25718,98872
25728,98892
25738,98906
25748,98918
25758,98933
25768,98946
25778,98951
25788,98957
25799,98958
25809,98959
25819,98957
25829,98953
25839,98954
25850,98957
25860,98964
25870,98971
25880,98981
25890,98988
25900,98998
25910,99012
25920,99019
25931,99030
25941,99037
25951,99036
25961,99051
25971,99053
25981,99058
25991,99072
26001,99079
26011,99084
26021,99098
26031,99109
26041,99118
26051,99130
26062,99141
26073,99149
26083,99157
26093,99164
26103,99170
26113,99168
26123,99158
26133,99117
26143,99057
26153,98979
26163,98876
26173,98780
26183,98699
26193,98650
26204,98617
26214,98613
26224,98617
26234,98633
26244,98668
26254,98700
26264,98741
26274,98773
26284,98799
26295,98818
26305,98836
26315,98848
26326,98866
26336,98877
26346,98891
26356,98915
26366,98932
26376,98949
26386,98960
26396,98963
26406,98964
26416,98963
26426,98963
26436,98956
26447,98959
26457,98957
26467,98958
26477,98966
26487,98974
26497,98986
26507,98992
26518,99012
26528,99019
26538,99042
26548,99061
26558,99075
26568,99086
26579,99103
26589,99112
26599,99128
26609,99139
26619,99147
26629,99158
26639,99169
26649,99179
26659,99186
26669,99197
26679,99207
26689,99216
26699,99222
26710,99225
26720,99231
26730,99225
26741,99208
26751,99173
26761,99110
26771,99037
26781,98943
26791,98845
26801,98768
26811,98710
26821,98688
26831,98688
26841,98696
26852,98717
26862,98747
26872,98784
26882,98820
26892,98850
26902,98872
26912,98901
26922,98918
26932,98930
26942,98953
26952,98964
26962,98985
26974,99000
26984,99012
26994,99020
27004,99030
27014,99036
27024,99032
27034,99030
27044,99030
27054,99015
27064,99011
27074,99005
27084,99000
27094,98999
27105,99011
27115,99019
27125,99028
27135,99034
27145,99048
27155,99057
27165,99069
27175,99083
27185,99096
27196,99107
27206,99119
27216,99126
27227,99134
27237,99147
27247,99154
27257,99154
27267,99169
27277,99180
27287,99186
27297,99198
27307,99208
27317,99210
27327,99214
27337,99225
27348,99227
27358,99207
27368,99170
27378,99111
27388,99039
27398,98948
27408,98859
27419,98786
27429,98734
27439,98708
27449,98703
27459,98712
27470,98731
27480,98768
27490,98801
27500,98841
27510,98873
27520,98904
27530,98927
27540,98950
27550,98962
27560,98977
27570,98995
27581,99007
27590,99028
27601,99038
27611,99050
27621,99051
27631,99051
27641,99041
27652,99041
27662,99036
27672,99032
27682,99029
27692,99030
27702,99032
27713,99037
27723,99046
27733,99054
27743,99065
27753,99070
27763,99081
27773,99090
27783,99104
27793,99118
27803,99133
27813,99152
27823,99166
27833,99176
27843,99187
27854,99198
27864,99208
27875,99215
27885,99223
27895,99237
27905,99239
27915,99249
27925,99257
27935,99259
27945,99262
27955,99259
27965,99236
27976,99190
27986,99127
27996,99049
28006,98962
28016,98867
28026,98797
28036,98757
28046,98735
28056,98739
28066,98755
28076,98787
28086,98821
28098,98856
28108,98897
28118,98926
28128,98950
28138,98968
28148,98983
28158,99002
28168,99011
28178,99031
28188,99045
28198,99053
28208,99061
28219,99064
28229,99065
28239,99066
28249,99064
28259,99052
28269,99048
28279,99042
28289,99041
28299,99045
28309,99047
28319,99052
28330,99054
28341,99067
28351,99080
28361,99086
28371,99101
28381,99113
28391,99126
28401,99139
28411,99156
28421,99169
28431,99175
28441,99189
28452,99198
28462,99213
28472,99222
28482,99232
28492,99244
28502,99254
28512,99262
28522,99268
28532,99272
28542,99275
28553,99271
28563,99260
28573,99231
28584,99175
28594,99103
28604,99020
28614,98942
28624,98869
28634,98816
28644,98799
28654,98794
28664,98805
28674,98836
28684,98872
28694,98906
28705,98940
28715,98972
28725,98994
28735,99005
28745,99020
28755,99029
28765,99045
28775,99053
28786,99068
28796,99082
28806,99091
28816,99099
28827,99101
28837,99102
28847,99103
28857,99099
28867,99094
28877,99093
28887,99085
28897,99090
28907,99086
28917,99092
28927,99098
28937,99103
28947,99110
28958,99119
28968,99132
28978,99145
28988,99160
28998,99178
29009,99190
29019,99210
29029,99220
29039,99231
29049,99242
29059,99258
29069,99263
29080,99272
29090,99280
29100,99284
29110,99295
29120,99298
29130,99304
29140,99312
29150,99306
29160,99299
29170,99273
29180,99224
29190,99161
29201,99083
29211,99003
29221,98922
29231,98861
29242,98820
29252,98806
29262,98812
29272,98833
29282,98863
29292,98900
29302,98929
29312,98968
29323,98992
29333,99011
29343,99023
29353,99033
29363,99038
29373,99044
29383,99056
29393,99070
29403,99081
29413,99086
29423,99088
29433,99088
29443,99083
29454,99083
29465,99072
29475,99056
29485,99046
29495,99033
29505,99030
29515,99018
29525,99022
29535,99028
29545,99041
29556,99055
29566,99065
29576,99079
29586,99099
29596,99111
29606,99127
29616,99142
29626,99151
29636,99170
29646,99182
29656,99199
29666,99211
29676,99221
29688,99233
29698,99247
29708,99250
29718,99260
29728,99261
29738,99270
29748,99281
29758,99287
29768,99279
29778,99256
29788,99205
29799,99133
29809,99047
29819,98944
29829,98848
29839,98778
29849,98744
29859,98727
29869,98733
29880,98754
29889,98784
29899,98820
29909,98860
29921,98886
29931,98918
29941,98940
29951,98962
29961,98984
29971,98991
29981,99010
29991,99020
30001,99035
30011,99043
30021,99056
30031,99063
30042,99060
30052,99062
30062,99066
30072,99061
30082,99062
30092,99059
30102,99061
30112,99061
30122,99067
30132,99072
30143,99084
30153,99096
30164,99109
30174,99120
30184,99131
30194,99146
30204,99159
30214,99168
30224,99179
30234,99196
30244,99209
30254,99224
30264,99238
30274,99246
30285,99260
30295,99265
30305,99271
30315,99281
30325,99287
30335,99288
30345,99294
30355,99293
30366,99292
30376,99284
30386,99257
30396,99206
30407,99144
30417,99063
30427,98979
30437,98902
30447,98825
30457,98784
30467,98760
30477,98762
30487,98783
30497,98815
30507,98850
30517,98890
30527,98922
30538,98961
30548,98982
30558,99000
30568,99018
30578,99038
30588,99050
30599,99064
30609,99075
30619,99085
30629,99090
30639,99090
30649,99091
30660,99085
30670,99077
30680,99071
30690,99062
30700,99054
30710,99055
30720,99053
30730,99057
30740,99066
30750,99078
30760,99080
30771,99093
30781,99101
30791,99111
30801,99123
30811,99138
30822,99149
30832,99158
30842,99177
30852,99190
30862,99196
30872,99211
30882,99217
30893,99226
30903,99236
30913,99247
30923,99251
30933,99258
30943,99261
30953,99267
30963,99264
30973,99252
30983,99217
30993,99162
31003,99092
31014,99004
31024,98917
31034,98828
31045,98773
31055,98741
31065,98727
31075,98732
31085,98753
31095,98777
31105,98813
31115,98851
31126,98886
31136,98916
31146,98942
31156,98959
31166,98976
31176,98989
31186,99004
31196,99017
31206,99038
31216,99054
31226,99066
31237,99065
31247,99073
31257,99065
31268,99058
31278,99055
31288,99052
31298,99047
31308,99043
31318,99046
31328,99048
31338,99055
31348,99062
31359,99075
31369,99083
31379,99092
31389,99105
31399,99114
31409,99131
31419,99148
31429,99157
31439,99172
31449,99183
31459,99196
31470,99206
31479,99213
31491,99226
31501,99234
31511,99248
31521,99253
31531,99262
31541,99264
31551,99266
31561,99251
31571,99227
31581,99177
31591,99100
31602,99010
31612,98912
31622,98822
31632,98762
31642,98731
31652,98718
31662,98727
31672,98747
31682,98773
31692,98802
31702,98833
31713,98860
31724,98885
31734,98906
31744,98925
31754,98942
31764,98956
31774,98964
31784,98992
31794,99007
31804,99025
31814,99038
31824,99041
31835,99045
31845,99048
31855,99044
31865,99040
31875,99028
31885,99024
31895,99026
31905,99026
31915,99032
31925,99039
31936,99046
31946,99053
31957,99062
31967,99075
31977,99088
31987,99105
31997,99114
32007,99131
32017,99143
32027,99158
32037,99170
32047,99186
32057,99196
32067,99207
32078,99220
32088,99229
32098,99246
32108,99253
32118,99267
32128,99278
32138,99279
32148,99276
32158,99257
32169,99213
32179,99149
32189,99070
32200,98977
32210,98889
32220,98812
32230,98767
32240,98744
32250,98747
32260,98765
32270,98785
32280,98819
32290,98851
32300,98882
32311,98914
32321,98941
32331,98960
32341,98971
32351,98984
32361,98995
32371,99014
32382,99025
32392,99044
32402,99054
32412,99061
32422,99069
32433,99071
32443,99071
32453,99073
32463,99068
32473,99064
32483,99063
32493,99065
32503,99062
32513,99063
32523,99073
32533,99084
32544,99093
32554,99104
32564,99115
32574,99130
32584,99146
32594,99159
32604,99172
32615,99182
32625,99188
32635,99201
32645,99211
32656,99216
32666,99229
32676,99237
32686,99249
32696,99257
32706,99269
32716,99279
32726,99280
32736,99286
32746,99280
32756,99264
32766,99227
32776,99173
32786,99096
32797,99016
32807,98941
32817,98866
32827,98815
32838,98786
32848,98783
32858,98793
32868,98820
32878,98846
32888,98875
32898,98906
32909,98931
32919,98952
32929,98961
32939,98971
32949,98977
32959,98989
32969,99000
32979,99007
32989,99018
32999,99027
33009,99036
33019,99042
33030,99033
33040,99036
33050,99035
33061,99038
33071,99031
33081,99035
33091,99036
33101,99036
33111,99043
33121,99055
33131,99060
33141,99070
33151,99086
33162,99092
33172,99102
33182,99119
33192,99126
33202,99142
33212,99161
33222,99175
33232,99190
33242,99198
33252,99207
33262,99213
33272,99224
33283,99235
33294,99238
33304,99240
33314,99248
33324,99255
33334,99255
33344,99251
33354,99250
33364,99234
33374,99199
33384,99144
33394,99072
33405,98987
33415,98907
33425,98833
33435,98783
33445,98755
33455,98751
33465,98764
33475,98785
33485,98817
33495,98847
33505,98879
33517,98899
33527,98918
33537,98941
33547,98953
33557,98963
33567,98983
33577,98999
33587,99015
33597,99030
33607,99039
33617,99049
33627,99047
33638,99040
33648,99038
33658,99029
33668,99022
33678,99020
33688,99015
33698,99019
33708,99019
33718,99022
33728,99032
33739,99039
33750,99051
33760,99062
33770,99074
33780,99085
33790,99098
33800,99110
33810,99127
33820,99135
33830,99150
33840,99148
33850,99157
33860,99166
33871,99168
33881,99178
33891,99186
33901,99187
33911,99193
33921,99203
33931,99212
33941,99211
33951,99215
33962,99208
33972,99188
33982,99154
33993,99090
34003,99010
34013,98921
34023,98837
34033,98755
34043,98702
34053,98678
34063,98676
34073,98687
34083,98712
34093,98738
34104,98770
34114,98800
34124,98830
34134,98852
34144,98868
34154,98883
34164,98897
34174,98908
34184,98925
34195,98940
34205,98952
34215,98965
34226,98973
34236,98972
34246,98972
34256,98970
34266,98961
34276,98957
34286,98952
34296,98953
34306,98953
34316,98955
34326,98955
34336,98964
34346,98973
34357,98977
34367,98993
34377,99004
34387,99017
34397,99028
34408,99041
34418,99050
34428,99059
34438,99073
34448,99083
34458,99096
34468,99101
34479,99112
34489,99121
34499,99132
34509,99139
34519,99149
34529,99155
34539,99158
34549,99162
34559,99156
34569,99135
34579,99091
34589,99030
34599,98944
34610,98850
34620,98746
34630,98672
34641,98621
34651,98595
34661,98588
34671,98590
34681,98609
34691,98626
34701,98651
34711,98683
34721,98704
34732,98733
34742,98754
34752,98770
34762,98789
34772,98798
34782,98817
34792,98846
34802,98858
34812,98880
34822,98891
34832,98901
34843,98905
34853,98903
34864,98900
34874,98895
34884,98895
34894,98891
34904,98898
34914,98902
34924,98910
34934,98921
34945,98931
34955,98940
34965,98955
34975,98969
34985,98985
34995,98997
35005,99008
35015,99021
35025,99040
35035,99048
35045,99061
35055,99069
35066,99082
35076,99091
35087,99096
35097,99105
35107,99113
35117,99121
35127,99132
35137,99137
35147,99151
35157,99150
35167,99146
35177,99123
35188,99069
35198,99001
35208,98902
35218,98799
35228,98696
35238,98621
35248,98571
35258,98546
35268,98536
35278,98546
35288,98570
35299,98599
35309,98636
35320,98665
35330,98694
35340,98716
35350,98733
35360,98751
35370,98767
35380,98779
35390,98801
35400,98826
35410,98850
35421,98866
35431,98881
35441,98892
35451,98900
35461,98904
35471,98906
35481,98902
35491,98899
35501,98896
35511,98894
35521,98895
35531,98894
35543,98902
35553,98916
35563,98931
35573,98943
35583,98956
35593,98971
35603,98984
35613,99003
35623,99015
35633,99031
35643,99042
35653,99061
35664,99074
35674,99089
35684,99104
35694,99111
35704,99124
35714,99131
35724,99146
35734,99146
35744,99155
35754,99157
35765,99155
35775,99142
35786,99108
35796,99052
35806,98974
35816,98880
35826,98778
35836,98684
35846,98620
35856,98585
35866,98571
35876,98584
35886,98603
35897,98637
35907,98674
35917,98711
35927,98745
35937,98777
35947,98801
35957,98817
35967,98819
35977,98841
35988,98855
35998,98874
36008,98889
36019,98908
36029,98919
36039,98921
36049,98918
36059,98914
36069,98909
36079,98900
36089,98894
36099,98893
36109,98888
36119,98895
36129,98902
36140,98911
36150,98917
36160,98922
36170,98940
36180,98954
36190,98968
36200,98984
36211,99003
36221,99017
36231,99034
36241,99052
36251,99063
36261,99079
36272,99091
36282,99100
36292,99107
36302,99117
36312,99127
36322,99127
36332,99136
36342,99134
36352,99136
36362,99121
36372,99087
36383,99036
36393,98962
36403,98869
36413,98774
36423,98680
36434,98617
36444,98582
36454,98570
36464,98571
36474,98591
36484,98625
36494,98665
36505,98701
36515,98736
36525,98767
36535,98792
36545,98815
36555,98824
36565,98854
36575,98873
36585,98895
36595,98919
36605,98933
36615,98946
36626,98957
36636,98961
36646,98958
36656,98958
36667,98956
36677,98949
36687,98943
36697,98949
36707,98948
36717,98949
36727,98954
36738,98965
36748,98979
36758,98993
36768,99007
36778,99020
36788,99037
36798,99052
36808,99071
36818,99082
36828,99103
36838,99117
36849,99129
36859,99141
36869,99152
36879,99159
36890,99164
36900,99170
36910,99178
36920,99182
36930,99182
36940,99168
36950,99143
36960,99099
36971,99031
36981,98953
36991,98863
37001,98782
37011,98708
37021,98668
37031,98647
37041,98653
37051,98681
37061,98718
37071,98757
37081,98800
37092,98833
37102,98871
37113,98895
37123,98919
37133,98936
37143,98949
37153,98963
37163,98989
37173,99002
37183,99017
37193,99033
37203,99046
37213,99052
37224,99060
37234,99061
37244,99056
37254,99050
37264,99048
37274,99042
37284,99036
37294,99040
37304,99032
37314,99039
37325,99042
37335,99052
37346,99063
37356,99079
37366,99088
37376,99103
37386,99125
37396,99135
37406,99149
37416,99160
37426,99176
37436,99184
37446,99198
37457,99213
37467,99226
37477,99232
37487,99236
37497,99242
37507,99253
37517,99255
37527,99246
37537,99232
37547,99190
37558,99135
37568,99059
37579,98982
37589,98916
37599,98858
37609,98823
37619,98812
37629,98815
37639,98833
37649,98857
37659,98885
37669,98915
37679,98946
37689,98975
37699,98997
37710,99018
37720,99030
37730,99054
37740,99067
37750,99088
37760,99106
37770,99118
37780,99128
37791,99129
37801,99131
37811,99129
37821,99133
37832,99130
37842,99125
37852,99122
37862,99126
37872,99118
37882,99122
37892,99125
37902,99129
37912,99138
37922,99150
37932,99162
37943,99174
37953,99194
37963,99205
37973,99219
37983,99231
37993,99243
38003,99252
38013,99261
38024,99273
38034,99282
38044,99291
38054,99294
38064,99302
38075,99311
38085,99316
38095,99318
38105,99316
38115,99299
38125,99266
38135,99216
38145,99140
38155,99063
38165,98990
38175,98923
38185,98879
38196,98861
38206,98863
38216,98875
38226,98902
38237,98928
38247,98962
38257,98989
38267,99016
38277,99039
38287,99059
38297,99075
38307,99089
38318,99100
38328,99112
38338,99131
38348,99145
38358,99155
38368,99152
38378,99160
38388,99154
38398,99148
38408,99143
38418,99134
38428,99129
38439,99123
38449,99123
38459,99123
38470,99133
38480,99137
38490,99148
38500,99165
38510,99174
38520,99193
38530,99204
38540,99217
38550,99226
38560,99237
38570,99251
38581,99262
38591,99274
38601,99281
38611,99292
38621,99297
38631,99299
38641,99308
38651,99318
38661,99323
38671,99321
38681,99318
38692,99302
38703,99258
38713,99203
38723,99120
38733,99043
38743,98972
38753,98918
38763,98884
38773,98878
38783,98886
38793,98906
38803,98929
38813,98959
38824,98992
38834,99020
38844,99046
38854,99069
38864,99089
38874,99103
38884,99117
38894,99133
38904,99145
38915,99159
38925,99172
38936,99177
38946,99180
38956,99182
38966,99181
38976,99171
38986,99171
38996,99169
39006,99169
39016,99162
39026,99162
39036,99166
39046,99165
39057,99182
39067,99191
39077,99200
39087,99208
39097,99219
39107,99236
39117,99252
39127,99261
39138,99276
39148,99282
39158,99292
39168,99300
39179,99310
39189,99321
39199,99325
39209,99332
39219,99339
39229,99344
39239,99348
39249,99348
39259,99342
39269,99316
39279,99274
39290,99207
39300,99119
39310,99028
39320,98939
39330,98866
39340,98815
39350,98789
39360,98796
39371,98811
39381,98838
39391,98877
39401,98908
39412,98937
39422,98959
39432,98976
39442,98994
39452,99005
39462,99009
39472,99016
39482,99029
39492,99039
39502,99049
39512,99062
39522,99066
39533,99070
39543,99076
39553,99070
39563,99069
39573,99069
39584,99063
39594,99063
39604,99061
39614,99058
39624,99067
39634,99072
39645,99088
39655,99095
39665,99112
39675,99127
39685,99148
39695,99166
39705,99184
39715,99203
39725,99216
39735,99232
39746,99247
39756,99263
39766,99271
39776,99281
39786,99291
39796,99295
39807,99303
39817,99311
39827,99319
39837,99321
39847,99312
39857,99293
39868,99256
39878,99193
39888,99108
39898,99028
39908,98958
39918,98901
39928,98862
39938,98850
39948,98859
39958,98877
39968,98900
39979,98929
39989,98967
39999,98992
40009,99022
40019,99042
40030,99059
40040,99071
40050,99084
40060,99093
40070,99109
40080,99121
40091,99139
40100,99155
40111,99164
40121,99174
40131,99179
40141,99178
40151,99173
40161,99169
40171,99162
40181,99159
40191,99159
40201,99160
40212,99163
40222,99171
40232,99184
40242,99195
40252,99199
40263,99212
40273,99222
40283,99240
40293,99254
40303,99263
40313,99278
40323,99292
40334,99302
40344,99308
40354,99321
40364,99325
40374,99337
40384,99342
40394,99347
40404,99353
40414,99354
40424,99354
40434,99352
40444,99347
40455,99321
40465,99287
40476,99227
40486,99147
40496,99076
40506,99020
40516,98978
40526,98957
40536,98959
40547,98968
40556,98991
40566,99013
40577,99042
40587,99066
40597,99092
40607,99112
40617,99128
40627,99141
40637,99160
40647,99169
40657,99180
40667,99192
40678,99207
40688,99219
40698,99224
40709,99235
40719,99234
40729,99231
40739,99232
40749,99229
40759,99222
40769,99219
40779,99209
40789,99210
40800,99207
40810,99211
40820,99214
40830,99216
40840,99223
40850,99239
40860,99247
40870,99251
40880,99263
40890,99274
40900,99288
40910,99295
40921,99305
40932,99319
40942,99330
40952,99331
40962,99341
40972,99346
40982,99347
40992,99356
41002,99357
41012,99362
41023,99362
41033,99363
41043,99354
41053,99332
41063,99293
41073,99228
41083,99146
41093,99074
41103,99005
41113,98949
41123,98917
41133,98908
41144,98912
41155,98934
41165,98965
41175,98996
41185,99026
41195,99053
41205,99084
41215,99100
41225,99117
41235,99131
41245,99152
41255,99165
41266,99179
41276,99190
41286,99199
41296,99205
41306,99208
41316,99207
41326,99200
41336,99195
41346,99185
41356,99169
41366,99155
41378,99151
41388,99142
41398,99145
41408,99151
41418,99161
41428,99174
41438,99183
41448,99198
41458,99217
41468,99232
41478,99245
41489,99253
41499,99266
41509,99278
41519,99286
41529,99299
41539,99304
41549,99311
41559,99324
41569,99327
41579,99335
41589,99342
41601,99343
41611,99347
41621,99347
41631,99341
41641,99314
41651,99271
41661,99206
41671,99130
41681,99056
41691,98989
41701,98934
41712,98903
41722,98894
41732,98901
41742,98917
41752,98946
41762,98974
41772,99002
41782,99021
41792,99042
41802,99067
41812,99077
41823,99088
41834,99096
41844,99106
41854,99122
41864,99140
41874,99156
41884,99169
41894,99178
41904,99178
41914,99177
41924,99172
41934,99168
41945,99164
41955,99161
41965,99153
41975,99155
41985,99162
41995,99170
42005,99173
42015,99185
42025,99198
42036,99205
42046,99220
42057,99230
42067,99242
42077,99256
42087,99270
42097,99283
42107,99296
42117,99305
42127,99316
42137,99326
42147,99331
42157,99335
42167,99343
42178,99350
42188,99353
42198,99357
42208,99362
42218,99351
42228,99336
42238,99298
42248,99236
42258,99157
42269,99093
42279,99015
42289,98953
42300,98911
42310,98896
42320,98901
42330,98920
42340,98944
42350,98982
42360,99016
42370,99048
42380,99074
42390,99094
42400,99107
42410,99125
42421,99134
42431,99149
42441,99165
42451,99187
42461,99206
42471,99218
42481,99225
42492,99225
42502,99230
42512,99225
42522,99228
42533,99221
42543,99222
42553,99221
42563,99223
42573,99227
42583,99230
42593,99241
42603,99245
42613,99258
42623,99264
42633,99277
42644,99289
42654,99304
42664,99316
42674,99325
42684,99338
42694,99350
42704,99357
42715,99367
42725,99375
42735,99383
42745,99392
42755,99398
42766,99403
42776,99403
42786,99406
42796,99413
42806,99413
42816,99404
42826,99383
42836,99351
42846,99300
42856,99227
42866,99153
42876,99090
42887,99048
42897,99020
42907,99016
42917,99030
42927,99044
42938,99063
42948,99093
42958,99119
42968,99148
42978,99164
42988,99185
42999,99199
43009,99211
43019,99220
43029,99230
43039,99241
43049,99250
43059,99261
43069,99271
43079,99273
43089,99276
43099,99272
43109,99274
43120,99266
43130,99266
43140,99256
43150,99251
43161,99256
43171,99256
43181,99255
43191,99259
43201,99268
43211,99271
43221,99280
43231,99287
43242,99298
43252,99304
43262,99314
43272,99322
43282,99336
43292,99345
43302,99354
43312,99368
43322,99371
43332,99382
43342,99390
43352,99395
43363,99402
43373,99406
43384,99411
43394,99414
43404,99416
43414,99409
43424,99395
43434,99366
43444,99320
43454,99250
43464,99180
43475,99113
43485,99052
43495,99014
43505,98998
43515,98999
43525,99019
43535,99034
43545,99065
43555,99091
43565,99117
43575,99143
43585,99162
43596,99173
43607,99186
43617,99198
43627,99207
43637,99218
43647,99232
43657,99246
43667,99263
43677,99266
43687,99271
43697,99270
43708,99268
43718,99262
43728,99261
43738,99257
43748,99251
43758,99245
43768,99251
43778,99257
43788,99263
43798,99276
43808,99284
43818,99293
43830,99297
43840,99311
43850,99320
43860,99330
43870,99340
43880,99347
43890,99359
43900,99370
43910,99378
43920,99386
43930,99394
43940,99399
43951,99410
43961,99410
43971,99418
43981,99424
43991,99429
44001,99437
44011,99442
44021,99437
44031,99434
44041,99406
44051,99373
44062,99321
44073,99255
44083,99190
44093,99130
44103,99094
44113,99072
44123,99068
44133,99073
44143,99087
44153,99111
44163,99134
44173,99160
44183,99183
44194,99208
44204,99226
44214,99241
44224,99251
44234,99270
44244,99277
44254,99295
44264,99307
44275,99312
44285,99318
44295,99317
44306,99315
44316,99314
44326,99313
44336,99306
44346,99303
44356,99301
44366,99298
44376,99296
44386,99300
44396,99307
44407,99311
44417,99315
44427,99325
44437,99335
44447,99342
44457,99357
44467,99367
44477,99370
44487,99382
44497,99386
44508,99391
44518,99398
44529,99403
44539,99405
44549,99410
44559,99417
44569,99422
44579,99432
44589,99433
44599,99441
44609,99442
44619,99440
44630,99440
44640,99426
44650,99396
44660,99350
44670,99290
44680,99211
44690,99137
44700,99083
44710,99039
44720,99016
44731,99019
44741,99031
44752,99044
44762,99067
44772,99096
44782,99126
44792,99143
44802,99167
44812,99184
44822,99196
44832,99205
44842,99217
44852,99233
44863,99239
44873,99254
44883,99269
44893,99272
44903,99276
44913,99276
44923,99272
44933,99271
44943,99260
44954,99250
44964,99248
44975,99245
44985,99252
44995,99262
45005,99266
45015,99275
45025,99280
45035,99287
45045,99299
45055,99311
45065,99324
45075,99336
45085,99348
45096,99361
45106,99375
45116,99387
45126,99389
45136,99401
45146,99410
45156,99417
45167,99418
45177,99429
45187,99434
45197,99439
45208,99441
45218,99445
45228,99441
45238,99417
45248,99381
45258,99331
45268,99264
45278,99184
45288,99119
45298,99073
45308,99043
45319,99031
45329,99037
45339,99059
45349,99080
45359,99103
45369,99129
45379,99151
45390,99171
45400,99194
45410,99212
45420,99229
45430,99237
45441,99256
45451,99267
45461,99282
45471,99294
45481,99304
45491,99309
45501,99312
45511,99309
45521,99309
45531,99309
45541,99305
45551,99301
45562,99297
45572,99296
45582,99296
45592,99301
45602,99311
45613,99319
45623,99331
45633,99339
45643,99349
45653,99358
45664,99366
45674,99376
45684,99384
45694,99392
45704,99408
45714,99414
45724,99422
45734,99431
45744,99438
45754,99447
45764,99452
45774,99459
45784,99459
45794,99468
45805,99468
45815,99470
45825,99463
45836,99451
45846,99418
45856,99362
45866,99296
45876,99222
45886,99159
45896,99101
45906,99073
45917,99064
45927,99062
45937,99077
45947,99098
45957,99122
45967,99151
45977,99172
45987,99197
45997,99221
46007,99231
46017,99244
46027,99252
46038,99257
46048,99272
46059,99281
46069,99296
46079,99304
46089,99311
46099,99319
46109,99321
46119,99319
46129,99320
46139,99321
46150,99317
46160,99315
46170,99309
46180,99312
46190,99311
46200,99320
46210,99328
46220,99328
46230,99338
46240,99350
46250,99359
46261,99367
46272,99378
46282,99395
46292,99405
46302,99415
46312,99423
46322,99433
46332,99442
46342,99450
46352,99451
46362,99460
46373,99463
46383,99468
46393,99472
46403,99479
46413,99477
46423,99479
46433,99467
46443,99450
46453,99409
46463,99356
46473,99291
46483,99224
46495,99157
46505,99114
46515,99095
46525,99089
46535,99094
46545,99111
46555,99134
46565,99151
46575,99174
46585,99199
46595,99219
46606,99233
46616,99249
46626,99259
46636,99270
46646,99281
46656,99288
46666,99307
46676,99316
46686,99321
46696,99326
46706,99327
46717,99325
46728,99321
46738,99317
46748,99310
46758,99309
46768,99300
46778,99302
46788,99300
46798,99300
46808,99302
46818,99309
46828,99314
46839,99327
46849,99333
46859,99346
46869,99360
46879,99369
46889,99381
46899,99392
46909,99396
46919,99410
46929,99416
46941,99422
46951,99429
46961,99432
46971,99435
46981,99441
46991,99440
47001,99443
47011,99446
47021,99449
47031,99448
47041,99438
47051,99412
47061,99379
47072,99323
47082,99253
47092,99183
47102,99132
47112,99099
47122,99075
47132,99075
47142,99081
47152,99101
47163,99122
47173,99150
47184,99181
47194,99203
47204,99229
47214,99253
47224,99264
47234,99278
47244,99289
47254,99302
47264,99315
47274,99334
47284,99343
47294,99346
47305,99350
47315,99353
47325,99349
47335,99344
47345,99345
47355,99344
47365,99332
47375,99335
47386,99333
47396,99335
47407,99340
47417,99346
47427,99353
47437,99360
47447,99371
47457,99384
47467,99391
47477,99402
47487,99410
47497,99423
47507,99427
47517,99439
47528,99446
47538,99453
47548,99455
47558,99467
47568,99471
47578,99475
47588,99479
47598,99488
47609,99488
47619,99487
47629,99495
47639,99493
47650,99484
47660,99448
47670,99409
47680,99349
47690,99292
47700,99230
47710,99175
47720,99144
47730,99124
47740,99121
47750,99135
47760,99149
47771,99172
47781,99201
47791,99226
47801,99244
47811,99265
47821,99284
47832,99297
47842,99309
47852,99322
47862,99334
47872,99344
47882,99355
47893,99364
47903,99367
47913,99364
47923,99361
47933,99360
47943,99350
47953,99347
47963,99336
47973,99331
47983,99327
47993,99327
48003,99329
48013,99339
48024,99339
48034,99346
48044,99357
48055,99370
48065,99371
48075,99382
48085,99396
48095,99401
48105,99416
48115,99421
48125,99430
48135,99439
48146,99441
48156,99451
48166,99461
48176,99464
48186,99469
48196,99482
48206,99476
48216,99480
48226,99481
48236,99477
48246,99449
48256,99412
48267,99361
48278,99294
48288,99220
48298,99162
48308,99112
48318,99085
48328,99077
48338,99077
48348,99093
48358,99118
48368,99140
48378,99171
48389,99188
48399,99215
48409,99231
48419,99247
48429,99258
48439,99275
48449,99281
48459,99298
48469,99309
48479,99320
48489,99325
48499,99330
48511,99332
48521,99329
48531,99326
48541,99321
48551,99317
48561,99317
48571,99313
48581,99308
48591,99308
48601,99313
48611,99318
48621,99325
48632,99330
48642,99340
48652,99356
48662,99365
48672,99373
48682,99382
48692,99394
48702,99403
48712,99409
48723,99424
48733,99431
48743,99436
48754,99445
48764,99450
48774,99456
48784,99464
48794,99476
48804,99478
48814,99478
48824,99475
48834,99464
48844,99443
48854,99401
48864,99343
48874,99271
48884,99200
48895,99132
48905,99090
48915,99065
48925,99056
48935,99064
48946,99075
48956,99093
48966,99113
48976,99140
48986,99166
48996,99181
49007,99196
49017,99212
49027,99223
49037,99232
49047,99247
49057,99260
49067,99271
49077,99286
49087,99289
49097,99297
49107,99302
49117,99297
49128,99293
49138,99295
49148,99288
49158,99285
49169,99287
49179,99280
49189,99282
49199,99288
49209,99294
49219,99298
49229,99304
49239,99312
49249,99323
49260,99334
49270,99345
49280,99356
49290,99364
49300,99374
49310,99388
49320,99397
49330,99402
49340,99413
49350,99423
49360,99433
49370,99443
49381,99447
49392,99448
49402,99452
49412,99453
49422,99446
49432,99438
49442,99412
49452,99363
49462,99298
49472,99223
49482,99155
49492,99095
49502,99051
49513,99030
49523,99034
49533,99040
49543,99057
49553,99082
49563,99103
49573,99125
49583,99150
49593,99169
49604,99184
49614,99197
49624,99209
49635,99220
49645,99234
49655,99250
49665,99264
49675,99275
49685,99286
49695,99290
49705,99292
49715,99287
49725,99287
49735,99280
49745,99278
49756,99270
49766,99273
49776,99275
49786,99276
49796,99283
49806,99289
49816,99295
49827,99300
49837,99315
49847,99323
49857,99339
49867,99350
49878,99357
49888,99374
49898,99382
49908,99392
49918,99404
49928,99411
49938,99417
49948,99425
49958,99436
49968,99443
49978,99452
49988,99456
49998,99460
50009,99465
50019,99462
50029,99457
50039,99427
50050,99390
50060,99326
50070,99251
50080,99175
50090,99117
50100,99067
50110,99042
50120,99033
50131,99037
50141,99054
50151,99076
50161,99099
50171,99124
50181,99143
50191,99161
50201,99175
50211,99187
50221,99197
50231,99205
50242,99215
50252,99231
50262,99241
50273,99255
50283,99259
50293,99265
50303,99272
50313,99270
50323,99274
50333,99264
50343,99266
50353,99262
50364,99256
50374,99257
50384,99258
50394,99263
50404,99274
50414,99277
50424,99287
50434,99293
50444,99304
50454,99315
50464,99327
50474,99338
50484,99349
50496,99358
50506,99366
50516,99382
50526,99385
50536,99398
50546,99404
50556,99404
50566,99410
50576,99418
50586,99426
50596,99428
50606,99429
50616,99433
50626,99432
50637,99422
50647,99398
50657,99357
50667,99291
50677,99216
50687,99153
50697,99097
50708,99053
50718,99028
50728,99030
50738,99035
50748,99056
50759,99075
50769,99101
50779,99124
50789,99150
50799,99167
50809,99182
50819,99197
50829,99207
50839,99217
50849,99227
50859,99239
50869,99255
50879,99264
50889,99267
50900,99267
50910,99264
50920,99263
50931,99253
50941,99242
50951,99235
50961,99231
50971,99227
50981,99230
50991,99235
51001,99237
51011,99247
51022,99253
51032,99260
51042,99274
51052,99286
51062,99298
51072,99304
51082,99318
51092,99330
51102,99338
51113,99352
51122,99358
51132,99364
51143,99365
51154,99375
51164,99383
51174,99382
51184,99391
51194,99392
51204,99395
51214,99401
51224,99402
51234,99391
51244,99373
51254,99336
51265,99272
51275,99197
51285,99122
51295,99054
51305,98999
51315,98962
51325,98952
51335,98950
51345,98967
51355,98988
51365,99015
51375,99040
51387,99065
51397,99085
51407,99104
51417,99114
51427,99123
51437,99136
51447,99146
51457,99158
51467,99173
51477,99189
51487,99194
51497,99206
51508,99206
51518,99201
51528,99197
51538,99192
51548,99189
51558,99180
51568,99183
51578,99183
51588,99186
51599,99189
51609,99196
51619,99206
51630,99217
51640,99224
51650,99238
51660,99251
51670,99261
51680,99277
51690,99286
51700,99301
51710,99310
51720,99315
51730,99327
51741,99331
51751,99338
51761,99345
51771,99351
51781,99354
51791,99361
51801,99370
51811,99369
51822,99374
51832,99364
51842,99349
51852,99311
51863,99254
51873,99179
51883,99102
51893,99032
51903,98975
51913,98937
51923,98920
51933,98916
51943,98929
51953,98957
51963,98981
51974,99006
51984,99033
51994,99054
52004,99067
52014,99080
52024,99091
52034,99097
52044,99108
52055,99122
52065,99141
52075,99153
52085,99165
52095,99169
52106,99181
52116,99180
52126,99180
52136,99179
52146,99174
52156,99167
52166,99168
52176,99166
52186,99166
52196,99172
52206,99181
52216,99179
52227,99193
52237,99203
52247,99219
52257,99233
52267,99240
52278,99247
52288,99264
52298,99272
52308,99284
52318,99299
52328,99308
52338,99315
52348,99320
52359,99332
52369,99341
52379,99343
52389,99352
52399,99356
52409,99359
52419,99363
52429,99361
52439,99357
52449,99341
52459,99298
52469,99240
52480,99173
52491,99096
52501,99023
52511,98963
52521,98925
52531,98912
52541,98914
52551,98925
52561,98942
52571,98974
52581,99003
52591,99024
52602,99045
52612,99059
52622,99071
52632,99077
52642,99083
52652,99087
52662,99100
52672,99109
52682,99123
52692,99128
52703,99136
52714,99137
52724,99140
52734,99143
52744,99140
52754,99130
52764,99123
52774,99120
52784,99116
52794,99117
52804,99122
52814,99123
52824,99133
52834,99142
52845,99146
52855,99154
52865,99159
52875,99172
52885,99181
52895,99199
52905,99201
52915,99216
52926,99228
52936,99230
52946,99241
52957,99248
52967,99255
52977,99260
52987,99263
52997,99272
53007,99281
53017,99283
53027,99287
53037,99293
53047,99290
53057,99283
53067,99265
53077,99231
53088,99168
53098,99095
53108,99007
53118,98921
53128,98842
53138,98783
53149,98750
53159,98745
53169,98750
53179,98773
53189,98801
53199,98838
53210,98869
53220,98897
53230,98914
53240,98932
53250,98942
53260,98954
53270,98967
53280,98979
53290,98996
53300,99015
53310,99030
53320,99044
53330,99054
53341,99063
53351,99065
53361,99060
53371,99058
53382,99057
53392,99045
53402,99041
53412,99044
53422,99040
53432,99040
53442,99051
53452,99063
53463,99078
53473,99090
53483,99103
53493,99117
53503,99131
53513,99145
53523,99155
53533,99168
53543,99183
53553,99195
53563,99210
53573,99230
53583,99238
53595,99242
53605,99259
53615,99270
53625,99279
53635,99289
53645,99298
53655,99301
53665,99307
53675,99304
53685,99297
53695,99267
53705,99213
53716,99145
53726,99057
53736,98959
53746,98862
53756,98776
53766,98718
53776,98696
53786,98688
53796,98697
53806,98722
53817,98753
53827,98795
53838,98833
53848,98867
53858,98895
53868,98917
53878,98940
53888,98952
53898,98965
53908,98987
53918,99007
53928,99025
53938,99041
53948,99047
53958,99053
53968,99054
53979,99050
53989,99046
53999,99036
54009,99038
54019,99036
54029,99037
54039,99043
54050,99050
54060,99057
54070,99069
54080,99081
54090,99094
54101,99104
54111,99110
54121,99125
54131,99139
54141,99154
54151,99169
54161,99183
54171,99198
54181,99206
54191,99216
54201,99227
54211,99240
54222,99251
54232,99257
54242,99269
54252,99279
54262,99282
54273,99287
54283,99292
54293,99288
54303,99290
54313,99278
54323,99248
54333,99191
54344,99110
54354,99020
54364,98923
54374,98836
54384,98763
54394,98721
54404,98701
54414,98710
54424,98725
54434,98744
54444,98769
54454,98792
54465,98829
54475,98857
54485,98880
54496,98897
54506,98906
54516,98920
54526,98935
54536,98954
54546,98971
54556,98981
54566,98996
54576,99007
54586,99003
54597,99007
54607,99000
54617,98996
54627,98998
54637,98995
54647,98996
54657,98992
54667,98999
54677,99004
54687,99019
54697,99033
54707,99045
54718,99059
54729,99079
54739,99094
54749,99110
54759,99126
54769,99140
54779,99160
54789,99170
54799,99190
54809,99202
54819,99211
54829,99221
54840,99227
54850,99234
54860,99238
54870,99242
54880,99249
54890,99249
54900,99249
54910,99252
54920,99242
54930,99217
54941,99162
54951,99095
54961,99014
54972,98921
54982,98838
54992,98779
55002,98747
55012,98741
55022,98763
55032,98791
55042,98827
55052,98862
55062,98901
55072,98931
55082,98954
55092,98971
55103,98985
55113,98995
55123,99008
55133,99020
55143,99047
55153,99066
55163,99087
55174,99095
55184,99107
55194,99107
55204,99115
55214,99108
55225,99106
55235,99097
55245,99092
55255,99090
55265,99095
55275,99093
55285,99103
55295,99110
55305,99114
55315,99129
55325,99136
55335,99141
55346,99155
55356,99166
55366,99182
55376,99192
55386,99201
55397,99216
55407,99226
55417,99232
55427,99236
55437,99247
55447,99254
55457,99260
55468,99260
55478,99272
55488,99273
55498,99279
55508,99285
55518,99285
55528,99278
55538,99252
55548,99208
55558,99139
55568,99049
55578,98943
55588,98850
55599,98774
55609,98727
55620,98703
55630,98709
55640,98722
55650,98749
55660,98784
55670,98822
55680,98846
55690,98877
55700,98898
55711,98910
55721,98929
55731,98944
55741,98960
55751,98981
55761,98997
55771,99019
55781,99035
55791,99050
55801,99058
55811,99069
55821,99072
55831,99075
55842,99074
55853,99070
55863,99068
55873,99068
55883,99072
55893,99072
55903,99077
55913,99080
55923,99089
55933,99100
55943,99111
55953,99124
55964,99143
55974,99153
55984,99169
55994,99183
56004,99199
56014,99210
56024,99220
56034,99235
56044,99246
56054,99259
56064,99269
56075,99281
56086,99293
56096,99299
56106,99303
56116,99313
56126,99315
56136,99316
56146,99307
56156,99287
56166,99241
56176,99171
56186,99084
56196,99002
56206,98912
56217,98841
56227,98795
56237,98772
56247,98779
56257,98800
56267,98830
56277,98868
56287,98902
56298,98938
56308,98964
56319,98992
56328,99013
56338,99020
56349,99035
56359,99044
56369,99062
56379,99075
56389,99092
56399,99109
56409,99122
56419,99132
56429,99132
56439,99134
56449,99130
56459,99130
56469,99130
56480,99119
56490,99119
56500,99122
56510,99119
56521,99126
56531,99138
56541,99151
56551,99165
56561,99177
56571,99188
56581,99198
56591,99211
56602,99226
56612,99243
56622,99257
56632,99273
56642,99292
56652,99297
56662,99308
56672,99310
56682,99316
56692,99326
56703,99334
56712,99345
56723,99357
56733,99361
56744,99366
56754,99366
56764,99362
56774,99354
56784,99320
56794,99264
56804,99194
56814,99108
56824,99028
56834,98957
56845,98906
56855,98877
56865,98875
56875,98889
56885,98923
56895,98951
56905,98990
56915,99020
56925,99049
56935,99075
56946,99098
56955,99110
56967,99122
56977,99133
56987,99152
56997,99163
57007,99181
57017,99193
57027,99204
57037,99210
57047,99214
57057,99218
57068,99214
57078,99205
57088,99197
57098,99190
57108,99180
57118,99173
57128,99177
57138,99178
57148,99186
57158,99193
57168,99205
57178,99210
57189,99226
57200,99237
57210,99251
57220,99262
57230,99276
57240,99286
57250,99299
57260,99307
57270,99319
57280,99327
57290,99334
57300,99345
57311,99344
57321,99352
57331,99355
57341,99356
57351,99362
57361,99361
57371,99362
57381,99358
57391,99349
57401,99312
57411,99269
57422,99196
57433,99117
57442,99043
57453,98973
57463,98922
57473,98886
57483,98878
57493,98891
57503,98909
57513,98940
57523,98976
57533,99008
57543,99047
57553,99070
57564,99094
57574,99111
57584,99125
57594,99137
57604,99152
57614,99166
57624,99182
57635,99190
57645,99199
57655,99202
57665,99202
57676,99200
57686,99192
57696,99184
57706,99175
57716,99168
57726,99164
57736,99161
57746,99164
57756,99167
57766,99170
57776,99185
57786,99197
57797,99205
57807,99222
57817,99236
57827,99250
57837,99265
57847,99277
57857,99284
57868,99289
57878,99294
57888,99306
57898,99313
57908,99317
57919,99318
57929,99322
57939,99329
57949,99334
57959,99335
57969,99338
57979,99334
57989,99329
57999,99310
58009,99267
58019,99207
58029,99123
58040,99028
58050,98931
58060,98840
58070,98772
58080,98727
58091,98707
58101,98707
58111,98722
58121,98750
58131,98789
58141,98825
58151,98861
58161,98891
58172,98917
58182,98942
58192,98958
58202,98975
58212,98994
58222,99008
58232,99021
58242,99036
58252,99050
58262,99056
58272,99057
58283,99049
58293,99049
58303,99038
58314,99034
58324,99028
58334,99023
58344,99016
58354,99019
58364,99024
58374,99033
58384,99044
58394,99064
58405,99078
58415,99100
58425,99122
58435,99141
58445,99159
58455,99175
58465,99192
58475,99206
58485,99219
58495,99233
58505,99244
58516,99252
58526,99261
58537,99272
58547,99280
58557,99286
58567,99294
58577,99299
58587,99300
58597,99300
58607,99272
58617,99225
58627,99151
58637,99057
58648,98960
58658,98856
58668,98772
58678,98716
58688,98694
58698,98692
58708,98713
58718,98746
58728,98788
58738,98829
58748,98870
58759,98904
58769,98931
58780,98956
58790,98977
58800,98987
58810,99010
58820,99023
58830,99042
58840,99058
58850,99078
58861,99084
58870,99092
58880,99094
58891,99091
58901,99086
58911,99083
58921,99075
58931,99073
58941,99074
58951,99079
58961,99082
58971,99093
58982,99105
58992,99115
59002,99125
59012,99137
59023,99148
59033,99164
59043,99178
59053,99189
59063,99202
59073,99222
59083,99238
59093,99253
59103,99266
59113,99279
59123,99291
59133,99309
59143,99317
59154,99333
59164,99344
59174,99354
59184,99368
59194,99379
59204,99377
59215,99368
59225,99334
59235,99272
59245,99191
59255,99098
59265,99010
59276,98931
59286,98873
59296,98847
59306,98837
59316,98850
59326,98874
59336,98912
59346,98945
59356,98979
59366,99012
59376,99037
59386,99059
59396,99074
59407,99090
59417,99106
59427,99124
59437,99140
59448,99161
59458,99176
59468,99191
59478,99193
59488,99198
59498,99195
59508,99194
59519,99186
59529,99179
59539,99170
59549,99173
59559,99170
59569,99178
59579,99183
59589,99190
59599,99193
59609,99214
59619,99225
59629,99233
59639,99253
59650,99267
59661,99282
59671,99296
59681,99305
59691,99322
59701,99336
59711,99344
59721,99353
59731,99364
59741,99371
59751,99378
59761,99378
59771,99378
59782,99384
59792,99386
59802,99383
59812,99383
59822,99378
59832,99356
59842,99312
59852,99251
59862,99182
59872,99100
59883,99030
59894,98983
59904,98953
59914,98949
59924,98963
59934,98981
59944,99010
59954,99045
59964,99075
59974,99100
59984,99124
59994,99136
END
