4176,89557
4186,89577
4196,89605
4206,89635
4217,89657
4227,89671
4237,89659
4247,89582
4257,89413
4267,89135
4277,88771
4287,88356
4297,87911
4308,87465
4318,87053
4328,86728
4339,86511
4349,86387
4359,86326
4369,86305
4379,86309
4389,86335
4399,86358
4409,86379
4419,86409
4430,86432
4440,86444
4450,86452
4460,86477
4470,86513
4480,86572
4490,86644
4500,86719
4510,86790
4520,86850
4530,86902
4541,86930
4551,86944
4562,86946
4572,86947
4582,86937
4592,86930
4602,86920
4612,86913
4622,86907
4632,86909
4643,86926
4653,86945
4663,86977
4673,87005
4683,87050
4693,87089
4703,87137
4713,87180
4723,87228
4733,87277
4744,87326
4753,87370
4765,87415
4775,87454
4785,87499
4795,87532
4805,87566
4815,87614
4825,87651
4835,87704
4845,87756
4855,87812
4866,87870
4876,87927
4886,87984
4896,88047
4906,88119
4916,88179
4926,88240
4936,88302
4946,88354
4956,88411
4966,88467
4977,88529
4988,88579
4998,88594
5008,88548
5018,88388
5028,88127
5038,87777
5048,87377
5058,86974
5068,86625
5078,86352
5088,86163
5099,86050
5109,85981
5119,85928
5129,85894
5139,85889
5149,85888
5159,85903
5169,85929
5179,85963
5189,85997
5201,86030
5211,86063
5221,86107
5231,86163
5241,86238
5251,86324
5261,86423
5271,86513
5281,86601
5291,86662
5301,86721
5312,86767
5322,86801
5332,86828
5342,86836
5352,86842
5362,86836
5372,86828
5382,86824
5392,86831
5402,86851
5413,86891
5423,86940
5434,86999
5444,87059
5454,87118
5464,87179
5474,87240
5484,87305
5494,87365
5504,87432
5514,87493
5524,87556
5534,87611
5545,87660
5555,87699
5565,87737
5575,87772
5585,87803
5595,87839
5605,87887
5615,87939
5626,87989
5636,88047
5646,88113
5657,88184
5667,88250
5677,88319
5687,88381
5697,88443
5707,88509
5717,88562
5727,88620
5737,88684
5747,88755
5757,88823
5767,88902
5777,88975
5788,89030
5798,89008
5808,88882
5818,88658
5828,88358
5839,88003
5849,87615
5859,87246
5869,86931
5879,86690
5890,86551
5900,86489
5910,86480
5920,86499
5930,86540
5940,86594
5950,86649
5960,86702
5970,86740
5980,86772
5990,86798
6000,86824
6010,86856
6021,86892
6031,86952
6041,87022
6052,87101
6062,87182
6072,87254
6082,87312
6092,87363
6102,87396
6112,87429
6122,87447
6133,87463
6143,87463
6153,87456
6163,87451
6173,87443
6183,87446
6193,87461
6203,87489
6213,87514
6223,87558
6233,87599
6243,87645
6254,87697
6265,87747
6275,87816
6285,87877
6295,87938
6305,88006
6315,88066
6325,88121
6335,88180
6345,88234
6355,88286
6366,88341
6376,88399
6386,88464
6396,88524
6406,88582
6416,88652
6426,88726
6436,88799
6446,88873
6456,88938
6466,89010
6477,89079
6488,89137
6498,89193
6508,89236
6518,89280
6528,89323
6538,89371
6548,89415
6558,89470
6568,89523
6578,89578
6588,89625
6599,89641
6609,89595
6619,89436
6629,89165
6639,88814
6649,88413
6659,88002
6669,87619
6679,87272
6690,86999
6700,86807
6710,86704
6721,86666
6731,86665
6741,86684
6751,86714
6761,86764
6771,86812
6781,86867
6791,86926
6801,86977
6811,87024
6821,87080
6832,87141
6842,87217
6852,87309
6862,87400
6872,87491
6882,87570
6892,87636
6903,87691
6913,87735
6923,87758
6934,87768
6944,87781
6954,87776
6964,87784
6974,87785
6984,87794
6994,87815
7004,87836
7014,87862
7024,87901
7034,87943
7045,87992
7055,88044
7065,88090
7075,88150
7085,88200
7095,88258
7105,88315
7116,88373
7126,88435
7136,88497
7146,88566
7157,88629
7167,88689
7177,88744
7187,88803
7197,88864
7207,88930
7217,88991
7227,89044
7237,89102
7247,89160
7257,89224
7267,89280
7278,89332
7288,89378
7298,89432
7308,89471
7318,89504
7329,89544
7339,89584
7349,89629
7359,89671
7369,89718
7379,89771
7390,89817
7400,89858
7410,89895
7420,89924
7430,89905
7440,89799
7450,89576
7460,89253
7470,88868
7480,88451
7490,88049
7501,87671
7511,87357
7521,87122
7531,86981
7542,86937
7552,86951
7562,87008
7572,87092
7582,87199
7592,87302
7602,87410
7612,87510
7623,87598
7633,87672
7643,87745
7653,87821
7663,87903
7673,87990
7683,88089
7693,88178
7703,88250
7713,88304
7724,88342
7734,88367
7744,88381
7755,88392
7765,88391
7775,88388
7785,88400
7795,88423
7805,88452
7815,88486
7825,88531
7836,88587
7846,88646
7856,88708
7866,88772
7876,88832
7886,88901
7896,88966
7906,89039
7916,89116
7926,89197
7936,89283
7947,89358
7958,89430
7968,89506
7978,89570
7988,89630
7998,89689
8008,89750
8018,89809
8028,89873
8038,89947
8048,90029
8059,90122
8068,90224
8079,90321
8089,90414
8099,90511
8109,90596
8119,90683
8129,90763
8139,90838
8149,90907
8159,90983
8170,91059
8181,91146
8191,91234
8201,91324
8211,91412
8221,91499
8231,91585
8241,91667
8251,91744
8261,91806
8271,91800
8281,91663
8292,91366
8302,90981
8312,90602
8322,90221
8332,89853
8342,89508
8352,89217
8362,88996
8372,88840
8383,88749
8393,88705
8403,88686
8414,88699
8424,88738
8434,88789
8444,88865
8454,88947
8464,89034
8474,89119
8484,89210
8494,89322
8504,89444
8514,89583
8524,89729
8535,89868
8545,90006
8555,90118
8565,90210
8575,90289
8585,90350
8596,90396
8606,90432
8616,90460
8626,90480
8636,90499
8647,90517
8657,90541
8667,90561
8677,90587
8687,90605
8697,90636
8707,90669
8717,90709
8727,90755
8737,90801
8748,90859
8758,90922
8768,90991
8778,91057
8788,91139
8798,91231
8809,91334
8819,91462
8829,91644
8839,91855
8849,92080
8859,92308
8870,92481
8880,92505
8890,92564
8900,92654
8910,92746
8920,92835
8930,92930
8940,93028
8950,93128
8960,93218
8971,93302
8981,93390
8991,93477
9001,93555
9011,93633
9022,93707
9032,93783
9042,93862
9052,93945
9062,94029
9072,94114
9082,94197
9093,94258
9103,94241
9113,94071
9123,93709
9133,93178
9143,92609
9153,92054
9163,91655
9173,91450
9183,91360
9193,91310
9203,91271
9213,91293
9224,91335
9235,91398
9245,91483
9255,91571
9265,91654
9275,91725
9285,91790
9295,91848
9305,91901
9315,91963
9325,92023
9336,92081
9346,92135
9356,92172
9366,92188
9376,92186
9386,92161
9396,92113
9406,92039
9416,91955
9426,91865
9436,91769
9448,91664
9458,91558
9468,91452
9478,91344
9488,91254
9498,91162
9508,91071
9518,90993
9528,90932
9538,90846
9548,90741
9558,90616
9569,90480
9579,90331
9589,90195
9599,90053
9609,89926
9619,89828
9629,89746
9639,89682
9649,89632
9660,89598
9671,89584
9681,89586
9691,89598
9701,89601
9711,89599
9721,89604
9731,89615
9741,89642
9751,89674
9761,89717
9771,89767
9782,89814
9792,89866
9802,89924
9812,89970
9822,90012
9832,90055
9842,90096
9852,90142
9862,90198
9873,90257
9884,90280
9894,90227
9904,90068
9914,89839
9924,89567
9934,89267
9944,88966
9954,88682
9965,88451
9975,88285
9985,88204
9995,88215
10005,88275
10015,88381
10025,88517
10035,88667
10045,88832
10055,89005
10066,89184
10076,89368
10086,89550
10097,89748
10107,89948
10117,90139
10127,90319
10137,90474
10147,90610
10157,90724
10167,90820
10178,90902
10188,90964
10198,91011
10208,91052
10218,91074
10228,91096
10238,91125
10248,91155
10258,91194
10268,91238
10278,91293
10289,91354
10299,91425
10310,91491
10320,91559
10330,91628
10340,91698
10350,91790
10360,91921
10370,92020
10380,92139
10390,92299
10401,92458
10411,92600
10421,92729
10431,92844
10441,92955
10451,93057
10461,93149
10471,93238
10481,93316
10491,93399
10502,93481
10512,93555
10523,93628
10533,93695
10543,93756
10553,93817
10563,93880
10573,93939
10583,93997
10593,94054
10603,94112
10613,94157
10624,94203
10634,94219
10644,94188
10654,94016
10664,93656
10674,93108
10684,92474
10694,91841
10704,91358
10715,91098
10725,90961
10736,90891
10746,90863
10756,90853
10766,90865
10776,90895
10786,90943
10796,90994
10806,91054
10816,91126
10827,91195
10837,91262
10847,91337
10857,91424
10867,91526
10877,91645
10887,91762
10897,91862
10907,91946
10917,92008
10927,92057
10937,92095
10948,92112
10959,92112
10969,92089
10979,92071
10989,92060
10999,92054
11009,92053
11019,92062
11029,92076
11039,92094
11049,92130
11059,92173
11070,92217
11080,92263
11090,92304
11100,92336
11110,92358
11120,92377
11130,92402
11140,92418
11150,92444
11161,92464
11171,92491
11181,92517
11192,92553
11202,92595
11212,92635
11222,92688
11232,92729
11242,92779
11252,92813
11262,92849
11272,92883
11282,92909
11292,92941
11303,92967
11313,93002
11323,93047
11333,93089
11343,93138
11353,93187
11363,93247
11373,93297
11384,93356
11394,93390
11405,93370
11415,93201
11425,92812
11435,92249
11445,91672
11455,91273
11465,91035
11475,90883
11485,90777
11495,90701
11505,90639
11516,90604
11526,90576
11536,90558
11546,90535
11556,90498
11566,90450
11576,90400
11586,90347
11597,90292
11607,90259
11617,90241
11628,90235
11638,90255
11648,90312
11658,90380
11668,90460
11678,90530
11688,90587
11698,90633
11708,90662
11718,90680
11728,90689
11738,90690
11749,90689
11759,90685
11769,90682
11779,90690
11789,90708
11799,90728
11810,90752
11820,90779
11830,90803
11840,90820
11851,90847
11861,90895
11871,90952
11881,91019
11891,91094
11901,91166
11911,91235
11921,91301
11931,91371
11941,91444
11951,91520
11962,91591
11972,91659
11982,91726
11992,91793
12002,91853
12013,91919
12023,91978
12033,92038
12043,92099
12053,92157
12063,92215
12073,92259
12084,92313
12094,92358
12104,92400
12114,92450
12124,92504
12134,92553
12144,92591
12154,92630
12164,92608
12174,92468
12185,92124
12195,91647
12205,91206
12215,90895
12226,90670
12236,90493
12246,90345
12256,90233
12266,90134
12276,90047
12286,89968
12296,89913
12307,89877
12317,89855
12327,89841
12337,89839
12347,89852
12357,89873
12367,89910
12377,89960
12387,90013
12397,90086
12407,90183
12418,90291
12428,90402
12439,90513
12449,90609
12459,90696
12469,90763
12479,90824
12489,90865
12499,90891
12509,90913
12519,90917
12529,90917
12540,90909
12550,90899
12560,90888
12570,90881
12580,90865
12590,90835
12600,90796
12610,90755
12620,90739
12630,90728
12640,90748
12652,90775
12662,90815
12672,90858
12682,90914
12692,90972
12702,91036
12712,91098
12722,91158
12732,91223
12742,91292
12752,91364
12762,91439
12773,91516
12783,91593
12793,91663
12803,91719
12813,91775
12823,91808
12833,91840
12843,91867
12853,91895
12864,91923
12874,91949
12885,91979
12895,92009
12905,92050
12915,92096
12925,92144
12935,92180
12945,92152
12955,91974
12965,91628
12975,91189
12985,90834
12996,90553
13006,90319
13016,90115
13026,89934
13036,89745
13046,89580
13056,89445
13067,89348
13077,89279
13087,89249
13097,89238
13108,89238
13118,89240
13128,89262
13138,89292
13148,89328
13158,89374
13168,89445
13178,89531
13188,89638
13198,89755
13209,89866
13219,89962
13229,90041
13239,90107
13249,90169
13259,90213
13269,90257
13280,90288
13290,90307
13300,90319
13310,90336
13320,90354
13331,90371
13341,90389
13351,90420
13361,90447
13371,90476
13381,90513
13391,90558
13401,90613
13411,90672
13421,90730
13431,90803
13442,90874
13452,90944
13462,91004
13472,91071
13482,91138
13493,91202
13503,91267
13513,91343
13523,91407
13533,91474
13543,91537
13553,91602
13564,91657
13574,91715
13584,91773
13594,91828
13604,91869
13614,91908
13624,91947
13634,91985
13644,92014
13654,92047
13665,92075
13675,92112
13685,92144
13695,92177
13706,92196
13716,92173
13726,92035
13736,91732
13746,91320
13756,90937
13766,90653
13776,90447
13787,90288
13797,90157
13807,90063
13817,89985
13827,89915
13837,89849
13847,89791
13857,89742
13867,89704
13877,89656
13887,89596
13898,89527
13908,89443
13919,89358
13929,89289
13939,89248
13949,89257
13959,89281
13969,89319
13979,89369
13989,89407
13999,89443
14009,89455
14020,89463
14030,89457
14040,89444
14050,89423
14060,89403
14070,89387
14080,89389
14090,89402
14100,89425
14110,89456
14120,89493
14132,89538
14142,89588
14152,89643
14162,89712
14172,89780
14182,89863
14192,89941
14202,90029
14212,90121
14222,90202
14232,90283
14243,90366
14253,90448
14263,90545
14273,90639
14283,90746
14293,90842
14303,90943
14313,91032
14323,91125
14333,91217
14344,91308
14354,91399
14365,91490
14375,91572
14385,91648
14395,91721
14405,91781
14415,91845
14425,91909
14435,91970
14445,92032
14455,92103
14465,92171
14476,92237
14486,92295
14496,92324
14506,92273
14516,92047
14526,91639
14536,91138
14547,90715
14557,90421
14567,90188
14578,89988
14588,89819
14598,89652
14608,89488
14618,89358
14628,89268
14638,89196
14648,89153
14658,89133
14668,89138
14678,89155
14688,89189
14699,89233
14709,89288
14719,89361
14729,89450
14739,89560
14749,89684
14760,89809
14770,89930
14780,90032
14790,90120
14800,90188
14811,90235
14821,90281
14831,90322
14841,90358
14851,90384
14861,90419
14871,90452
14881,90501
14891,90546
14901,90597
14911,90652
14921,90709
14932,90764
14942,90825
14952,90883
14962,90954
14973,91033
14983,91129
14993,91229
15003,91328
15013,91416
15023,91502
15033,91574
15044,91638
15054,91692
15064,91737
15074,91783
15084,91836
15094,91893
15104,91961
15114,92028
15124,92092
15134,92155
15145,92214
15154,92261
15165,92314
15175,92364
15186,92413
15196,92458
15206,92506
15216,92551
15226,92598
15236,92646
15246,92695
15256,92752
15266,92805
15277,92849
15287,92870
15297,92802
15307,92570
15317,92138
15327,91584
15337,91098
15347,90779
15357,90592
15367,90467
15377,90378
15387,90315
15398,90283
15409,90282
15419,90304
15429,90336
15439,90382
15449,90432
15459,90499
15469,90557
15479,90622
15489,90681
15499,90750
15509,90827
15520,90911
15530,90998
15540,91096
15550,91186
15560,91266
15570,91320
15580,91359
15590,91373
15601,91365
15611,91334
15621,91298
15632,91268
15642,91242
15652,91223
15662,91223
15672,91233
15682,91255
15692,91289
15702,91322
15712,91358
15722,91398
15732,91445
15743,91492
15753,91536
15763,91577
15773,91615
15783,91657
15793,91697
15803,91739
15814,91782
15824,91828
15834,91881
15844,91931
15855,91980
15865,92021
15875,92067
15885,92120
15895,92164
15905,92229
15915,92282
15925,92341
15935,92389
15945,92443
15955,92491
15965,92543
15976,92588
15986,92637
15996,92698
16006,92765
16016,92822
16027,92855
16037,92843
16047,92724
16057,92411
16067,91937
16077,91421
16087,91038
16097,90803
16108,90650
16118,90543
16128,90480
16138,90445
16148,90430
16158,90445
16168,90476
16178,90515
16188,90578
16198,90638
16208,90701
16219,90764
16229,90825
16240,90890
16250,90966
16260,91049
16270,91153
16280,91261
16290,91351
16300,91419
16310,91472
16320,91501
16331,91519
16341,91531
16351,91524
16361,91520
16371,91513
16381,91500
16391,91502
16401,91504
16411,91517
16421,91535
16431,91561
16442,91591
16453,91625
16463,91655
16473,91702
16483,91753
16493,91806
16503,91860
16513,91912
16523,91961
16533,92009
16544,92057
16553,92113
16564,92162
16574,92217
16584,92266
16594,92316
16604,92355
16614,92394
16624,92450
16634,92495
16644,92543
16655,92591
16666,92640
16676,92684
16686,92728
16696,92760
16706,92797
16716,92827
16726,92867
16736,92915
16746,92958
16756,93007
16766,93065
16777,93109
16787,93109
16797,93018
16807,92740
16817,92256
16827,91676
16837,91212
16847,90925
16857,90738
16868,90614
16878,90534
16888,90471
16899,90443
16909,90433
16919,90436
16929,90458
16939,90484
16949,90519
16959,90553
16969,90588
16979,90620
16989,90643
16999,90687
17009,90740
17020,90811
17030,90888
17040,90975
17050,91064
17060,91141
17071,91191
17081,91234
17091,91270
17101,91288
17111,91303
17121,91303
17132,91292
17142,91289
17152,91287
17162,91286
17172,91297
17182,91311
17192,91339
17202,91380
17212,91423
17222,91465
17232,91515
17242,91564
17253,91618
17263,91667
17273,91714
17284,91763
17294,91819
17304,91869
17314,91919
17324,91970
17334,92023
17344,92073
17354,92123
17365,92181
17375,92234
17385,92282
17395,92330
17405,92373
17415,92411
17425,92458
17435,92494
17445,92540
17455,92583
17465,92643
17475,92694
17486,92748
17497,92807
17507,92864
17517,92915
17527,92963
17537,92982
17547,92935
17557,92744
17567,92360
17577,91838
17587,91338
17598,90999
17608,90795
17618,90655
17628,90569
17638,90504
17648,90475
17658,90460
17668,90462
17678,90474
17688,90490
17699,90516
17709,90545
17720,90572
17730,90594
17740,90614
17750,90639
17760,90664
17770,90704
17780,90766
17790,90838
17800,90919
17810,90987
17820,91047
17831,91094
17841,91129
17851,91152
17861,91158
17871,91154
17881,91141
17891,91129
17902,91122
17912,91108
17922,91111
17932,91122
17942,91138
17952,91162
17963,91190
17973,91223
17983,91266
17993,91311
18003,91359
18013,91408
18023,91456
18033,91504
18043,91555
18053,91598
18064,91645
18074,91701
18084,91756
18094,91810
18104,91856
18115,91898
18125,91942
18135,91977
18145,92005
18155,92040
18165,92079
18175,92118
18186,92161
18196,92205
18206,92249
18216,92288
18226,92329
18236,92370
18246,92412
18256,92457
18266,92501
18276,92501
18287,92408
18297,92150
18307,91742
18317,91307
18328,90970
18338,90745
18348,90594
18358,90486
18368,90405
18378,90361
18388,90332
18398,90332
18409,90345
18419,90374
18429,90408
18439,90442
18449,90480
18459,90515
18469,90558
18479,90603
18489,90665
18499,90738
18509,90827
18519,90919
18531,91004
18541,91078
18551,91127
18561,91169
18571,91190
18581,91202
18591,91207
18601,91210
18611,91200
18622,91194
18632,91190
18642,91193
18652,91206
18662,91218
18672,91242
18682,91272
18692,91309
18702,91354
18712,91399
18722,91448
18732,91492
18744,91544
18754,91594
18764,91647
18774,91695
18784,91742
18794,91791
18804,91837
18814,91872
18824,91915
18834,91964
18844,92016
18854,92064
18865,92114
18875,92162
18885,92200
18895,92247
18905,92281
18915,92322
18925,92363
18935,92415
18946,92458
18956,92502
18966,92554
18977,92600
18987,92634
18997,92604
19007,92428
19017,92062
19027,91581
19037,91145
19047,90854
19057,90661
19067,90530
19078,90439
19088,90374
19098,90339
19108,90318
19118,90315
19128,90330
19138,90348
19148,90368
19159,90389
19169,90411
19179,90427
19189,90445
19200,90470
19210,90504
19220,90557
19230,90621
19240,90709
19250,90793
19260,90867
19270,90935
19280,90986
19290,91032
19300,91057
19311,91060
19321,91064
19331,91045
19341,91029
19351,91010
19361,91010
19372,91016
19382,91027
19392,91052
19402,91085
19412,91128
19423,91169
19433,91210
19443,91261
19453,91310
19463,91359
19473,91409
19483,91454
19493,91508
19503,91560
19513,91603
19523,91644
19534,91685
19544,91731
19554,91779
19564,91827
19575,91868
19585,91918
19595,91963
19605,92005
19615,92048
19625,92089
19635,92138
19645,92181
19656,92218
19666,92262
19676,92313
19686,92359
19696,92415
19706,92470
19716,92523
19726,92542
19736,92490
19746,92282
19756,91886
19766,91390
19778,90974
19788,90702
19798,90520
19808,90384
19818,90293
19828,90225
19838,90176
19848,90144
19858,90132
19868,90128
19878,90123
19889,90123
19899,90128
19909,90137
19919,90146
19929,90156
19939,90168
19949,90187
19959,90233
19969,90291
19980,90362
19990,90447
20000,90539
20011,90614
20021,90675
20031,90724
20041,90762
20051,90792
20061,90809
20071,90814
20081,90811
20091,90806
20101,90793
20112,90794
20122,90802
20132,90819
20142,90847
20152,90877
20162,90911
20172,90950
20182,90991
20193,91038
20203,91095
20213,91155
20223,91213
20234,91274
20244,91331
20254,91387
20264,91446
20274,91504
20284,91561
20294,91614
20304,91663
20314,91713
20324,91761
20334,91807
20345,91852
20355,91892
20365,91931
20375,91968
20385,92008
20396,92042
20406,92082
20416,92127
20426,92169
20436,92219
20446,92275
20456,92326
20467,92382
20477,92430
20487,92474
20497,92474
20507,92394
20517,92138
20527,91707
20537,91224
20547,90844
20557,90599
20568,90439
20578,90312
20588,90223
20598,90158
20609,90115
20619,90088
20629,90072
20639,90076
20649,90078
20659,90079
20670,90084
20680,90091
20690,90100
20700,90107
20710,90124
20720,90155
20730,90198
20740,90267
20750,90349
20760,90438
20770,90519
20780,90590
20791,90656
20801,90708
20811,90736
20822,90754
20832,90765
20842,90764
20852,90759
20862,90759
20872,90764
20882,90773
20892,90793
20903,90818
20913,90853
20923,90897
20933,90937
20943,90983
20953,91038
20963,91086
20973,91134
20983,91180
20993,91227
21004,91281
21014,91336
21025,91385
21035,91433
21045,91489
21055,91540
21065,91589
21075,91632
21085,91678
21095,91735
21105,91783
21116,91832
21126,91882
21136,91925
21146,91972
21156,92016
21166,92055
21176,92089
21186,92112
21196,92147
21206,92186
21216,92239
21226,92285
21238,92341
21248,92392
21258,92444
21268,92497
21278,92534
21288,92524
21298,92394
21308,92074
21318,91606
21328,91126
21339,90787
21349,90572
21359,90426
21369,90326
21379,90257
21389,90212
21399,90185
21409,90172
21419,90172
21429,90174
21440,90184
21450,90199
21461,90215
21471,90236
21481,90258
21491,90287
21501,90313
21511,90355
21521,90425
21531,90503
21541,90594
21551,90678
21562,90766
21572,90828
21582,90885
21592,90924
21602,90945
21612,90957
21622,90964
21632,90968
21642,90967
21653,90977
21663,90989
21674,91005
21683,91030
21694,91059
21704,91099
21714,91138
21724,91180
21734,91235
21744,91286
21754,91346
21764,91404
21774,91460
21784,91514
21794,91565
21805,91607
21815,91650
21825,91682
21835,91705
21845,91727
21856,91735
21866,91745
21876,91769
21886,91810
21896,91859
21906,91906
21917,91959
21927,92007
21937,92055
21947,92097
21957,92138
21967,92177
21977,92226
21987,92269
21997,92305
22007,92340
22017,92374
22028,92414
22038,92450
22048,92491
22058,92541
22069,92592
22079,92635
22089,92678
22099,92698
22109,92642
22119,92435
22130,92045
22140,91550
22150,91105
22160,90804
22170,90620
22180,90494
22190,90404
22200,90348
22210,90309
22220,90282
22230,90261
22241,90256
22251,90255
22261,90263
22271,90277
22282,90295
22292,90316
22302,90336
22312,90360
22322,90394
22332,90444
22342,90514
22353,90608
22363,90700
22373,90782
22383,90850
22393,90901
22403,90934
22413,90955
22423,90962
22433,90958
22443,90946
22453,90939
22464,90936
22474,90927
22485,90927
22495,90938
22505,90956
22515,90990
22525,91023
22535,91065
22545,91111
22555,91156
22565,91202
22576,91254
22586,91297
22596,91350
22606,91408
22616,91454
22626,91505
22636,91554
22646,91599
22656,91641
22666,91690
22676,91740
22687,91789
22698,91832
22708,91878
22718,91919
22728,91953
22738,91981
22748,92010
22758,92036
22768,92054
22778,92084
22789,92115
22799,92148
22809,92185
22819,92229
22829,92277
22839,92326
22849,92372
22859,92412
22869,92414
22879,92330
22890,92091
22900,91692
22911,91239
22921,90877
22931,90631
22941,90481
22951,90365
22961,90292
22971,90247
22981,90226
22992,90222
23002,90231
23012,90253
23022,90289
23032,90326
23042,90372
23052,90421
23062,90473
23072,90533
23082,90597
23093,90676
23103,90775
23114,90881
23124,90981
23134,91073
23144,91140
23154,91181
23164,91197
23174,91200
23184,91172
23195,91134
23205,91086
23215,91033
23225,90982
23235,90938
23245,90919
23255,90918
23265,90938
23275,90969
23286,91006
23296,91041
23306,91079
23317,91112
23327,91143
23337,91175
23347,91213
23357,91247
23367,91278
23377,91313
23387,91342
23398,91373
23408,91411
23418,91446
23428,91490
23438,91529
23448,91581
23458,91618
23468,91663
23478,91701
23489,91737
23499,91778
23509,91823
23519,91873
23530,91916
23540,91968
23550,92014
23560,92065
23570,92109
23581,92152
23591,92198
23601,92238
23611,92288
23621,92326
23631,92378
23641,92432
23651,92477
23661,92506
23671,92433
23682,92194
23692,91762
23702,91244
23712,90839
23722,90570
23733,90380
23743,90232
23753,90116
23763,90021
23773,89947
23783,89881
23794,89817
23804,89753
23814,89694
23824,89658
23834,89625
23844,89598
23854,89586
23864,89589
23874,89609
23885,89629
23895,89668
23905,89724
23915,89791
23925,89874
23936,89955
23946,90041
23956,90114
23966,90186
23977,90244
23987,90296
23997,90333
24007,90358
24017,90375
24027,90387
24037,90397
24047,90410
24057,90432
24068,90456
24077,90483
24088,90519
24098,90562
24108,90607
24118,90657
24128,90711
24138,90766
24149,90816
24159,90869
24169,90919
24180,90967
24190,91020
24200,91068
24210,91115
24220,91172
24230,91224
24240,91281
24250,91334
24260,91382
24271,91441
24281,91494
24291,91545
24301,91595
24311,91641
24321,91688
24331,91728
24341,91768
24351,91808
24362,91850
24372,91895
24383,91942
24393,91991
24403,92038
24413,92089
24423,92146
24433,92193
24443,92227
24453,92192
24463,92009
24473,91643
24484,91168
24494,90762
24504,90483
24514,90290
24524,90145
24534,90040
24544,89957
24554,89897
24565,89861
24576,89831
24586,89816
24596,89814
24606,89820
24616,89826
24626,89846
24636,89868
24646,89900
24656,89934
24666,89974
24677,90026
24687,90093
24697,90182
24707,90271
24717,90348
24727,90422
24737,90485
24747,90535
24757,90566
24768,90586
24779,90584
24789,90573
24799,90562
24809,90548
24819,90536
24829,90535
24839,90538
24849,90551
24859,90569
24869,90593
24880,90622
24890,90655
24900,90686
24910,90721
24920,90753
24930,90789
24940,90826
24950,90871
24960,90908
24970,90952
24982,90990
24992,91035
25002,91085
25012,91129
25022,91169
25032,91212
25042,91254
25052,91305
25063,91349
25073,91401
25083,91448
25093,91496
25103,91536
25113,91581
25123,91623
25133,91676
25143,91735
25153,91783
25163,91831
25174,91878
25185,91922
25195,91964
25205,92014
25215,92077
25225,92123
25235,92125
25245,92022
25255,91746
25266,91311
25276,90873
25286,90556
25296,90344
25306,90188
25316,90075
25326,89983
25336,89926
25347,89889
25356,89873
25367,89870
25377,89874
25387,89884
25398,89898
25408,89913
25418,89933
25428,89964
25438,89995
25448,90047
25458,90110
25469,90198
25479,90292
25489,90380
25499,90458
25509,90520
25519,90563
25529,90593
25539,90613
25549,90618
25559,90614
25570,90594
25580,90575
25590,90567
25600,90554
25611,90547
25621,90554
25631,90567
25641,90593
25651,90622
25662,90656
25672,90693
25682,90739
25692,90788
25702,90835
25712,90884
25722,90932
25732,90979
25742,91024
25752,91062
25763,91098
25773,91124
25783,91153
25793,91186
25803,91220
25814,91256
25824,91291
25834,91336
25844,91380
25854,91417
25864,91448
25875,91480
25885,91512
25895,91552
25905,91588
25915,91631
25925,91669
25935,91713
25945,91756
25956,91803
25965,91851
25976,91905
25986,91956
25996,92001
26006,92019
26017,91983
26027,91809
26037,91460
26047,91030
26057,90651
26068,90394
26078,90202
26088,90047
26098,89929
26108,89830
26118,89752
26128,89680
26138,89629
26148,89600
26158,89597
26168,89599
26179,89628
26189,89664
26199,89708
26209,89755
26219,89822
26230,89895
26240,89982
26250,90082
26261,90177
26271,90264
26281,90347
26291,90416
26301,90465
26311,90515
26321,90537
26331,90558
26341,90562
26351,90565
26361,90569
26372,90581
26382,90597
26392,90619
26402,90652
26412,90694
26422,90737
26433,90790
26443,90840
26453,90892
26463,90951
26474,91001
26484,91050
26494,91107
26504,91157
26514,91212
26524,91271
26534,91329
26544,91390
26554,91459
26565,91554
26575,91647
26585,91743
26595,91831
26605,91918
26615,91996
26625,92076
26635,92146
26646,92208
26656,92266
26667,92320
26677,92374
26687,92425
26697,92475
26707,92524
26717,92587
26727,92649
26737,92718
26747,92799
26757,92866
26768,92922
26778,92920
26788,92806
26798,92499
26808,92016
26818,91451
26828,90978
26839,90700
26849,90531
26859,90426
26870,90359
26880,90327
26890,90314
26900,90331
26910,90363
26920,90415
26930,90462
26940,90520
26950,90570
26961,90621
26971,90683
26981,90763
26991,90859
27001,90970
27011,91089
27021,91203
27031,91294
27041,91378
27052,91427
27062,91453
27073,91458
27083,91449
27093,91422
27103,91406
27113,91394
27123,91379
27133,91379
27143,91381
27153,91393
27164,91412
27174,91438
27184,91468
27194,91506
27204,91550
27214,91594
27224,91639
27234,91687
27244,91743
27255,91788
27266,91838
27276,91883
27286,91933
27296,91980
27306,92026
27316,92078
27326,92126
27336,92174
27346,92229
27357,92277
27367,92320
27377,92361
27387,92396
27397,92436
27407,92478
27417,92532
27427,92585
27437,92636
27447,92689
27458,92739
27469,92779
27479,92821
27489,92861
27499,92908
27509,92946
27519,92955
27529,92925
27539,92763
27549,92432
27560,91960
27570,91460
27580,91085
27590,90867
27600,90731
27610,90652
27620,90596
27630,90575
27640,90572
27650,90597
27662,90636
27672,90686
27682,90746
27692,90801
27702,90862
27712,90926
27722,90997
27732,91082
27742,91181
27753,91289
27763,91383
27773,91468
27783,91538
27793,91591
27803,91628
27813,91641
27823,91642
27833,91626
27843,91598
27853,91564
27864,91526
27875,91504
27885,91499
27895,91502
27905,91504
27915,91529
27925,91560
27935,91595
27945,91615
27956,91650
27966,91686
27976,91724
27986,91764
27996,91802
28006,91838
28016,91878
28026,91913
28036,91943
28046,91979
28057,92017
28067,92048
28078,92076
28088,92112
28098,92151
28108,92196
28118,92239
28128,92278
28138,92315
28148,92353
28159,92400
28169,92436
28179,92478
28189,92521
28199,92572
28209,92618
28219,92657
28229,92677
28239,92623
28250,92448
28260,92110
28270,91661
28281,91224
28291,90924
28301,90736
28311,90614
28321,90520
28331,90457
28341,90430
28351,90424
28362,90442
28372,90475
28382,90523
28392,90576
28402,90632
28412,90696
28422,90766
28432,90834
28442,90919
28452,91012
28463,91116
28473,91221
28484,91314
28494,91391
28504,91442
28514,91475
28524,91487
28534,91475
28544,91459
28555,91441
28565,91419
28575,91408
28585,91395
28595,91398
28605,91413
28615,91434
28625,91457
28635,91495
28645,91530
28655,91574
28666,91614
28676,91656
28687,91708
28697,91757
28707,91802
28717,91852
28727,91903
28737,91948
28747,91998
28758,92045
28768,92091
28778,92141
28788,92184
28798,92231
28808,92274
28818,92320
28828,92357
28838,92400
28848,92442
28858,92478
28869,92526
28879,92576
28890,92619
28900,92669
28910,92717
28920,92764
28930,92806
28940,92811
28950,92723
28960,92462
28971,92026
28981,91482
28991,91040
29001,90762
29011,90583
29021,90458
29031,90361
29041,90294
29051,90244
29061,90224
29071,90212
29082,90211
29093,90211
29103,90228
29113,90250
29123,90269
29133,90291
29143,90319
29153,90354
29163,90405
29173,90470
29184,90550
29194,90639
29204,90735
29214,90810
29224,90881
29234,90935
29244,90981
29254,91002
29264,91009
29274,91011
29284,91003
29295,90999
29306,90996
29316,91005
29326,91023
29336,91049
29346,91082
29356,91126
29366,91183
29377,91249
29387,91318
29397,91382
29407,91444
29417,91501
29427,91551
29437,91605
29447,91643
29457,91690
29467,91727
29477,91766
29488,91802
29498,91830
29509,91852
29519,91880
29529,91897
29539,91917
29549,91942
29559,91969
29569,91994
29579,92017
29589,92046
29600,92084
29610,92116
29620,92157
29630,92199
29640,92241
29650,92280
29660,92291
29670,92216
29680,91984
29690,91573
29701,91092
29711,90719
29722,90463
29732,90266
29742,90113
29752,89982
29762,89868
29772,89767
29782,89664
29792,89574
29802,89501
29813,89455
29823,89421
29833,89399
29843,89375
29853,89359
29863,89348
29873,89347
29883,89359
29893,89395
29903,89452
29913,89529
29924,89617
29935,89716
29945,89813
29955,89896
29965,89968
29975,90028
29985,90061
29995,90093
30005,90109
30015,90119
30025,90121
30036,90134
30046,90147
30056,90169
30066,90203
30076,90239
30086,90290
30096,90342
30106,90398
30116,90454
30127,90508
30137,90563
30148,90622
30158,90679
30168,90742
30178,90797
30188,90869
30198,90921
30208,90978
30218,91028
30229,91083
30239,91132
30249,91179
30259,91231
30269,91282
30279,91334
30289,91385
30299,91426
30309,91467
30319,91504
30330,91534
30340,91560
30351,91595
30361,91623
30371,91663
30381,91703
30391,91750
30401,91796
30411,91845
30421,91876
30431,91894
30441,91838
30452,91645
30462,91276
30472,90823
30482,90460
30492,90198
30502,89988
30512,89824
30522,89684
30532,89549
30543,89408
30554,89272
30564,89162
30574,89077
30584,89009
30594,88961
30604,88923
30614,88905
30624,88898
30634,88903
30644,88912
30655,88933
30665,88970
30675,89031
30685,89114
30695,89211
30705,89308
30715,89405
30725,89490
30735,89570
30746,89635
30756,89688
30767,89728
30777,89763
30787,89785
30797,89803
30807,89825
30817,89851
30827,89891
30837,89932
30847,89973
30857,90020
30868,90065
30878,90120
30888,90179
30898,90243
30908,90302
30918,90369
30928,90428
30938,90483
30949,90530
30959,90580
30969,90640
30980,90696
30990,90758
31000,90820
31010,90868
31020,90915
31030,90959
31040,91003
31050,91048
31060,91101
31070,91150
31081,91195
31091,91241
31101,91278
31111,91312
31121,91344
31131,91378
31141,91413
31152,91460
31162,91512
31172,91564
31183,91622
31193,91670
31203,91722
31213,91763
31223,91783
31233,91726
31243,91530
31253,91169
31263,90733
31273,90390
31283,90157
31294,89979
31304,89838
31314,89727
31324,89638
31334,89570
31344,89502
31354,89445
31365,89396
31375,89370
31385,89356
31395,89340
31406,89335
31416,89335
31426,89346
31436,89360
31446,89401
31456,89453
31466,89531
31476,89618
31486,89715
31496,89801
31506,89881
31517,89940
31527,89990
31537,90021
31547,90053
31557,90065
31567,90074
31578,90079
31588,90091
31598,90101
31608,90119
31619,90141
31629,90168
31639,90200
31649,90243
31659,90288
31669,90336
31679,90381
31689,90430
31699,90475
31709,90525
31719,90575
31730,90622
31740,90668
31750,90716
31760,90761
31770,90809
31781,90850
31791,90898
31801,90947
31811,90998
31821,91046
31832,91090
31842,91139
31852,91181
31862,91228
31872,91267
31882,91304
31892,91344
31902,91375
31912,91414
31922,91450
31932,91483
31943,91518
31953,91559
31963,91605
31973,91648
31984,91697
31994,91744
32004,91789
32014,91822
32024,91806
32034,91682
32044,91398
32055,90982
32065,90589
32075,90312
32085,90118
32095,89968
32105,89853
32115,89774
32125,89709
32135,89670
32145,89637
32156,89622
32166,89613
32176,89613
32186,89624
32197,89639
32207,89654
32217,89680
32227,89718
32237,89778
32247,89855
32257,89953
32267,90058
32278,90154
32288,90233
32298,90290
32308,90332
32318,90347
32328,90352
32338,90344
32348,90328
32358,90312
32368,90309
32379,90310
32389,90331
32400,90370
32410,90422
32420,90475
32430,90530
32440,90590
32450,90646
32460,90695
32470,90751
32480,90806
32491,90854
32501,90909
32511,90955
32521,90999
32531,91047
32541,91085
32551,91124
32561,91161
32571,91195
32581,91226
32591,91260
32603,91301
32613,91341
32623,91378
32633,91426
32643,91453
32653,91482
32663,91516
32673,91543
32683,91575
32693,91608
32703,91646
32713,91694
32724,91731
32734,91775
32744,91816
32754,91850
32764,91868
32774,91842
32784,91717
32794,91437
32804,91033
32815,90647
32826,90369
32836,90175
32846,90029
32856,89903
32866,89820
32876,89753
32886,89709
32896,89676
32906,89651
32916,89634
32926,89634
32937,89636
32947,89647
32957,89663
32967,89679
32977,89719
32987,89776
32997,89859
33007,89951
33018,90050
33028,90141
33039,90215
33048,90274
33059,90309
33069,90336
33079,90346
33089,90345
33099,90335
33109,90326
33119,90314
33129,90309
33139,90307
33149,90315
33159,90330
33170,90362
33180,90403
33190,90447
33200,90492
33210,90541
33220,90589
33231,90635
33241,90686
33251,90734
33261,90779
33271,90822
33282,90873
33292,90917
33302,90963
33312,91013
33322,91061
33332,91108
33342,91154
33352,91197
33362,91237
33372,91277
33383,91321
33393,91364
33403,91407
33413,91450
33423,91485
33434,91519
33444,91567
33454,91619
33464,91673
33474,91721
33484,91769
33494,91816
33505,91849
33515,91861
33525,91799
33535,91596
33545,91228
33555,90780
33565,90413
33575,90154
33585,89962
33595,89807
33605,89680
33616,89575
33626,89489
33637,89395
33647,89321
33657,89249
33667,89197
33677,89162
33687,89131
33697,89106
33707,89089
33717,89079
33727,89080
33738,89105
33748,89146
33758,89204
33768,89289
33778,89379
33788,89478
33798,89568
33808,89650
33818,89723
33828,89773
33840,89810
33850,89831
33860,89840
33870,89856
33880,89861
33890,89872
33900,89894
33910,89917
33920,89952
33930,89982
33940,90019
33951,90053
33960,90086
33971,90119
33981,90155
33991,90189
34001,90217
34011,90254
34021,90295
34031,90344
34042,90400
34052,90458
34062,90509
34073,90567
34083,90612
34093,90657
34103,90705
34113,90747
34123,90797
34133,90845
34143,90901
34153,90946
34163,90992
34173,91036
34184,91073
34194,91112
34204,91147
34214,91189
34224,91233
34234,91278
34245,91325
34255,91378
34265,91435
34275,91483
34285,91531
34296,91545
34306,91491
34316,91293
34326,90922
34336,90489
34346,90146
34356,89891
34366,89689
34376,89523
34386,89375
34396,89239
34407,89099
34417,88969
34427,88862
34437,88779
34447,88713
34458,88669
34468,88634
34478,88616
34488,88601
34498,88596
34508,88609
34518,88630
34529,88675
34539,88738
34549,88843
34559,88949
34569,89074
34579,89189
34589,89294
34599,89391
34609,89457
34619,89517
34630,89559
34640,89598
34650,89626
34661,89645
34671,89676
34681,89704
34691,89740
34701,89781
34712,89822
34722,89880
34732,89937
34742,89995
34752,90054
34762,90119
34772,90181
34782,90241
34792,90300
34802,90364
34812,90426
34823,90487
34833,90552
34843,90618
34853,90674
34864,90741
34874,90800
34884,90851
34894,90906
34904,90955
34914,91006
34924,91061
34935,91112
34945,91163
34955,91213
34965,91257
34975,91306
34985,91348
34995,91392
35005,91435
35015,91476
35025,91525
35036,91575
35045,91629
35056,91679
35066,91730
35077,91783
35087,91835
35097,91865
35107,91835
35117,91686
35127,91347
35137,90864
35148,90413
35158,90112
35168,89906
35178,89748
35188,89618
35198,89524
35208,89451
35218,89373
35228,89297
35239,89246
35249,89204
35259,89173
35269,89159
35280,89150
35290,89145
35300,89151
35310,89158
35320,89185
35330,89218
35340,89286
35351,89363
35361,89473
35371,89589
35381,89687
35391,89777
35401,89854
35411,89913
35421,89958
35431,89991
35441,90018
35451,90035
35462,90050
35473,90065
35483,90081
35493,90102
35503,90136
35513,90177
35523,90227
35533,90280
35543,90334
35553,90394
35564,90455
35574,90513
35584,90574
35594,90633
35604,90691
35614,90750
35624,90805
35634,90866
35644,90914
35654,90966
35665,91024
35675,91075
35686,91125
35696,91171
35706,91216
35716,91257
35726,91298
35736,91333
35746,91367
35756,91410
35767,91452
35777,91492
35787,91535
35797,91568
35807,91600
35817,91634
35827,91663
35837,91687
35847,91719
35857,91752
35867,91789
35877,91839
35889,91879
35899,91918
35909,91954
35919,91965
35929,91917
35939,91721
35949,91355
35959,90883
35970,90478
35980,90203
35990,90009
36000,89863
36010,89740
36020,89654
36030,89587
36040,89531
36050,89486
36060,89452
36070,89430
36080,89428
36091,89431
36102,89441
36112,89453
36122,89472
36132,89500
36142,89550
36152,89612
36162,89698
36172,89798
36183,89899
36193,89982
36203,90055
36213,90113
36223,90151
36233,90171
36243,90183
36253,90186
36263,90198
36273,90191
36283,90194
36295,90196
36305,90214
36315,90235
36325,90258
36335,90292
36345,90335
36355,90389
36365,90443
36375,90495
36386,90553
36396,90608
36406,90659
36416,90701
36426,90751
36436,90806
36446,90869
36456,90927
36466,90986
36476,91040
36486,91097
36496,91137
36508,91178
36518,91214
36528,91255
36538,91309
36548,91363
36558,91415
36568,91463
36578,91502
36588,91544
36599,91575
36609,91602
36619,91636
36629,91672
36639,91718
36649,91758
36659,91805
36669,91851
36679,91900
36689,91942
36700,91979
36711,92005
36721,91973
36731,91815
36741,91465
36751,90990
36761,90552
36771,90256
36781,90056
36791,89909
36802,89799
36812,89710
36822,89644
36832,89599
36842,89562
36852,89537
36862,89525
36872,89525
36882,89539
36892,89559
36902,89575
36913,89584
36924,89604
36934,89631
36944,89682
36954,89753
36964,89853
36974,89954
36984,90060
36994,90143
37004,90213
37015,90259
37025,90277
37035,90285
37045,90279
37055,90269
37065,90260
37075,90262
37085,90267
37095,90283
37106,90305
37116,90332
37127,90357
37137,90393
37147,90429
37157,90469
37167,90522
37177,90571
37187,90628
37197,90692
37207,90753
37217,90813
37228,90866
37238,90917
37248,90960
37258,91006
37268,91060
37278,91113
37288,91165
37298,91220
37309,91278
37319,91331
37330,91381
37340,91428
37350,91469
37360,91515
37370,91543
37380,91575
37390,91602
37400,91625
37410,91653
37420,91685
37430,91716
37441,91755
37451,91788
37461,91827
37471,91863
37481,91899
37491,91938
37501,91990
37511,92029
37522,92068
37532,92106
37542,92106
37553,92012
37563,91725
37573,91258
37583,90757
37593,90389
37603,90144
37613,89959
37623,89811
37633,89689
37643,89597
37654,89503
37664,89422
37674,89351
37684,89306
37694,89276
37704,89253
37715,89252
37725,89254
37735,89269
37745,89287
37755,89312
37765,89358
37776,89410
37786,89489
37796,89582
37806,89685
37816,89790
37826,89888
37836,89971
37846,90055
37856,90116
37866,90166
37876,90191
37887,90196
37897,90193
37907,90180
37918,90170
37928,90157
37938,90161
37948,90166
37958,90181
37968,90210
37978,90252
37988,90289
37998,90342
38009,90396
38019,90448
38029,90499
38039,90542
38049,90593
38059,90637
38069,90684
38079,90730
38089,90781
38099,90829
38110,90882
38120,90938
38130,90986
38141,91038
38151,91094
38161,91143
38171,91202
38181,91257
38191,91304
38201,91348
38211,91386
38221,91428
38231,91471
38241,91509
38252,91558
38262,91598
38272,91642
38282,91676
38292,91715
38302,91752
38312,91788
38323,91823
38333,91870
38343,91926
38353,91982
38364,92037
38373,92066
38384,92042
38394,91896
38404,91563
38414,91079
38424,90611
38434,90285
38444,90061
38454,89891
38464,89752
38474,89639
38484,89544
38495,89461
38505,89387
38515,89326
38526,89284
38536,89255
38546,89246
38556,89240
38566,89243
38576,89260
38586,89283
38596,89315
38606,89368
38616,89419
38627,89496
38637,89578
38647,89667
38657,89760
38667,89839
38677,89914
38687,89978
38697,90029
38707,90069
38717,90096
38728,90105
38739,90113
38749,90112
38759,90124
38769,90140
38779,90155
38789,90184
38799,90216
38809,90250
38819,90294
38829,90343
38839,90395
38850,90460
38860,90522
38870,90576
38880,90630
38890,90683
38900,90742
38910,90804
38920,90863
38930,90926
38941,90983
38951,91041
38961,91093
38971,91140
38981,91186
38992,91227
39002,91267
39012,91317
39022,91368
39032,91421
39042,91474
39052,91516
39062,91562
39072,91602
39082,91639
39092,91674
39103,91704
39113,91737
39123,91771
39133,91804
39144,91844
39154,91884
39164,91928
39174,91972
39184,92026
39194,92075
39204,92124
39214,92151
39225,92098
39235,91906
39245,91523
39255,91030
39265,90593
39275,90312
39285,90116
39295,89976
39305,89859
39316,89782
39325,89727
39335,89693
39347,89664
39357,89649
39367,89644
39377,89658
39387,89671
39397,89690
39407,89712
39417,89736
39427,89769
39437,89813
39447,89878
39457,89958
39468,90056
39478,90152
39488,90248
39498,90331
39508,90401
39518,90451
39528,90484
39538,90507
39549,90508
39559,90507
39569,90495
39579,90489
39590,90479
39600,90482
39610,90507
39620,90537
39630,90572
39640,90605
39650,90637
39660,90678
39670,90726
39680,90772
39691,90822
39701,90873
39711,90929
39721,90979
39731,91033
39741,91081
39752,91132
39762,91182
39772,91231
39782,91287
39792,91332
39802,91386
39812,91438
39823,91489
39833,91538
39843,91579
39853,91616
39863,91656
39873,91693
39883,91730
39893,91765
39903,91807
39913,91842
39923,91886
39934,91928
39944,91969
39955,92013
39965,92056
39975,92095
39985,92119
39995,92086
40005,91923
40015,91585
40025,91115
40036,90672
40046,90360
40056,90152
40066,90005
40076,89884
40086,89798
40096,89732
40106,89683
40116,89646
40126,89627
40136,89620
40147,89632
40158,89652
40168,89671
40178,89700
40188,89737
40198,89772
40208,89826
40218,89889
40228,89982
40238,90086
40248,90192
40259,90289
40269,90374
40279,90437
40289,90491
40299,90524
40309,90540
40319,90545
40329,90546
40339,90546
40349,90541
40360,90547
40371,90566
40381,90587
40391,90621
40401,90656
40411,90704
40421,90753
40431,90812
40441,90867
40451,90922
40461,90975
40472,91025
40481,91078
40492,91126
40502,91172
40512,91216
40522,91267
40532,91311
40542,91354
40552,91397
40563,91430
40573,91477
40583,91517
40593,91561
40604,91611
40614,91666
40624,91722
40634,91772
40644,91823
40654,91869
40664,91916
40674,91960
40684,92007
40694,92054
40704,92102
40714,92157
40725,92205
40735,92261
40745,92311
40755,92359
40766,92392
40776,92373
40786,92219
40796,91864
40806,91340
40816,90816
40826,90461
40836,90239
40847,90081
40857,89960
40867,89870
40877,89803
40887,89761
40897,89736
40907,89710
40917,89695
40927,89686
40937,89688
40947,89690
40957,89703
40968,89708
40979,89723
40989,89747
40999,89788
41009,89843
41019,89918
41029,90008
41039,90102
41049,90195
41059,90281
41069,90354
41080,90414
41090,90457
41100,90489
41110,90500
41120,90498
41130,90485
41140,90459
41150,90447
41160,90421
41171,90404
41181,90395
41192,90390
41202,90393
41212,90402
41222,90419
41232,90452
41242,90480
41252,90524
41262,90565
41272,90610
41282,90662
41292,90713
41303,90773
41313,90825
41323,90886
41333,90946
41343,91001
41353,91055
41363,91113
41374,91163
41384,91213
41394,91267
41404,91318
41414,91374
41424,91420
41435,91472
41445,91521
41455,91567
41465,91607
41475,91653
41485,91694
41495,91734
41505,91779
41515,91826
41525,91865
41535,91904
41546,91947
41556,91969
41566,91919
41576,91713
41587,91309
41597,90813
41607,90412
41617,90145
41627,89951
41637,89800
41648,89672
41658,89571
41668,89471
41678,89377
41688,89288
41698,89220
41708,89167
41718,89139
41729,89121
41738,89119
41748,89125
41758,89137
41769,89162
41779,89185
41790,89232
41800,89293
41810,89388
41820,89483
41830,89586
41840,89687
41850,89784
41860,89859
41870,89938
41881,89992
41891,90032
41901,90058
41911,90075
41921,90080
41931,90092
41941,90095
41951,90102
41961,90117
41971,90144
41981,90182
41993,90223
42003,90270
42013,90326
42023,90377
42033,90434
42043,90486
42053,90540
42063,90592
42073,90646
42083,90705
42093,90768
42104,90828
42114,90892
42124,90949
42134,91003
42144,91057
42154,91110
42164,91159
42174,91213
42184,91271
42195,91322
42206,91372
42216,91417
42226,91458
42236,91497
42246,91529
42256,91568
42266,91610
42276,91648
42286,91694
42296,91736
42306,91779
42317,91828
42327,91861
42337,91882
42347,91856
42357,91704
42367,91372
42377,90903
42387,90463
42398,90157
42408,89936
42418,89765
42429,89611
42439,89484
42449,89347
42459,89226
42469,89119
42479,89047
42489,88990
42499,88954
42509,88928
42519,88918
42529,88918
42540,88934
42550,88954
42560,88980
42570,89032
42580,89098
42590,89178
42600,89278
42611,89382
42621,89484
42631,89574
42641,89653
42652,89716
42662,89769
42672,89802
42682,89829
42692,89845
42702,89864
42712,89877
42722,89894
42732,89919
42742,89946
42753,89987
42763,90034
42773,90084
42783,90142
42793,90192
42803,90243
42814,90289
42824,90338
42834,90396
42844,90457
42855,90512
42865,90579
42875,90639
42885,90695
42895,90752
42905,90806
42915,90858
42925,90907
42935,90955
42945,91007
42955,91051
42966,91098
42976,91143
42986,91190
42996,91237
43006,91277
43017,91315
43027,91360
43037,91400
43047,91439
43057,91484
43067,91520
43078,91563
43088,91592
43098,91571
43108,91436
43118,91151
43128,90745
43138,90361
43148,90090
43158,89888
43168,89734
43178,89608
43189,89515
43199,89448
43209,89387
43220,89346
43230,89322
43240,89317
43250,89332
43260,89356
43270,89388
43280,89429
43290,89476
43301,89542
43311,89617
43321,89710
43331,89811
43341,89915
43351,90011
43361,90099
43371,90162
43381,90218
43391,90244
43401,90267
43411,90278
43422,90279
43433,90281
43443,90284
43453,90293
43463,90304
43473,90333
43483,90366
43493,90403
43503,90444
43513,90488
43524,90537
43534,90583
43544,90633
43554,90687
43564,90746
43574,90802
43584,90850
43595,90900
43604,90953
43614,91001
43624,91043
43635,91086
43645,91131
43656,91182
43666,91230
43676,91287
43686,91329
43696,91378
43706,91428
43716,91478
43726,91515
43736,91546
43746,91582
43757,91617
43767,91653
43777,91697
43787,91740
43797,91783
43807,91834
43817,91872
43827,91902
43838,91880
43848,91769
43858,91475
43869,91015
43879,90560
43889,90235
43899,90010
43909,89851
43919,89715
43929,89613
43939,89535
43949,89462
43959,89402
43969,89352
43980,89321
43990,89298
44000,89282
44010,89289
44020,89289
44031,89299
44041,89314
44051,89341
44061,89379
44071,89441
44081,89517
44091,89611
44102,89712
44112,89800
44122,89887
44132,89951
44142,90007
44152,90035
44162,90056
44172,90064
44182,90064
44192,90062
44202,90070
44213,90083
44223,90102
44233,90134
44244,90161
44254,90199
44264,90242
44274,90288
44284,90335
44294,90383
44304,90434
44314,90484
44325,90534
44335,90591
44345,90639
44355,90682
44365,90734
44375,90788
44385,90835
44395,90877
44405,90919
44415,90965
44426,91009
44436,91048
44447,91093
44457,91125
44467,91170
44477,91212
44487,91250
44497,91289
44507,91335
44517,91377
44527,91422
44538,91466
44548,91521
44558,91559
44568,91609
44578,91652
44588,91693
44598,91712
44608,91667
44618,91468
44628,91092
44638,90617
44650,90225
44660,89959
44670,89762
44680,89606
44690,89469
44700,89359
44710,89250
44720,89145
44730,89054
44740,88976
44751,88925
44761,88888
44771,88864
44781,88855
44791,88852
44801,88855
44811,88867
44821,88894
44831,88930
44841,88982
44851,89059
44863,89147
44873,89243
44883,89339
44893,89436
44903,89517
44913,89588
44923,89641
44933,89681
44943,89712
44953,89727
44964,89741
44974,89755
44984,89770
44994,89793
45004,89823
45014,89860
45024,89898
45034,89948
45044,90000
45055,90054
45065,90107
45075,90163
45086,90223
45096,90284
45106,90342
45116,90394
45126,90442
45136,90497
45146,90556
45156,90615
45166,90673
45176,90731
45187,90786
45197,90832
45207,90878
45217,90917
45227,90950
45237,90986
45247,91025
45258,91064
45268,91105
45278,91153
45288,91198
45298,91245
45309,91288
45319,91323
45329,91364
45339,91407
45349,91454
45359,91499
45369,91548
45379,91587
45389,91576
45399,91452
45409,91142
45420,90687
45430,90260
45440,89958
45450,89735
45461,89559
45471,89412
45481,89286
45491,89167
45501,89055
45511,88954
45521,88875
45532,88817
45542,88781
45552,88752
45562,88741
45572,88731
45582,88731
45592,88747
45602,88769
45612,88807
45622,88869
45632,88964
45643,89065
45653,89171
45664,89275
45674,89365
45684,89446
45694,89520
45704,89583
45714,89630
45724,89662
45735,89686
45744,89714
45755,89721
45765,89741
45775,89767
45785,89796
45795,89833
45805,89874
45815,89917
45825,89966
45835,90016
45845,90066
45855,90121
45867,90179
45877,90234
45887,90286
45897,90337
45907,90391
45917,90435
45927,90492
45937,90536
45947,90583
45957,90641
45967,90692
45978,90746
45988,90804
45998,90855
46008,90905
46018,90951
46028,90992
46038,91035
46048,91080
46058,91119
46068,91161
46079,91198
46090,91243
46100,91288
46110,91336
46120,91377
46130,91414
46140,91453
46150,91499
46160,91544
46170,91591
46180,91631
46191,91676
46201,91692
46211,91629
46221,91400
46231,90998
46241,90516
46251,90147
46261,89893
46271,89708
46282,89562
46292,89451
46302,89357
46313,89293
46323,89223
46333,89173
46343,89134
46353,89115
46363,89109
46373,89116
46383,89120
46393,89133
46403,89155
46413,89184
46423,89228
46434,89286
46444,89367
46454,89461
46464,89563
46474,89652
46485,89737
46495,89804
46505,89859
46515,89897
46525,89919
46536,89932
46546,89933
46556,89931
46566,89934
46576,89945
46586,89961
46596,89987
46606,90016
46616,90054
46626,90095
46636,90135
46647,90180
46657,90213
46667,90261
46677,90314
46687,90367
46698,90413
46708,90469
46718,90514
46728,90564
46738,90601
46749,90635
46759,90667
46769,90712
46779,90767
46789,90820
46799,90869
46809,90923
46819,90970
46829,91009
46839,91043
46850,91077
46860,91107
46870,91148
46880,91187
46890,91229
46901,91271
46911,91312
46921,91355
46931,91400
46941,91439
46951,91481
46962,91512
46972,91524
46982,91459
46992,91255
47002,90901
47012,90477
47022,90133
47032,89887
47042,89705
47052,89563
47062,89451
47073,89364
47083,89288
47094,89223
47104,89172
47114,89143
47124,89137
47134,89147
47144,89164
47154,89190
47164,89227
47175,89276
47185,89336
47195,89418
47205,89518
47215,89629
47225,89750
47235,89854
47245,89943
47255,90016
47265,90063
47276,90090
47286,90112
47296,90122
47307,90125
47317,90121
47327,90126
47337,90132
47347,90141
47357,90157
47367,90176
47377,90204
47388,90239
47398,90280
47408,90329
47418,90383
47428,90431
47438,90483
47448,90542
47458,90591
47468,90641
47478,90684
47488,90729
47498,90775
47510,90814
47520,90852
47530,90901
47540,90949
47550,91002
47560,91049
47570,91091
47580,91134
47590,91171
47600,91206
47610,91236
47621,91274
47631,91314
47641,91352
47651,91391
47661,91429
47671,91475
47681,91513
47691,91549
47701,91587
47712,91631
47722,91663
47733,91703
47743,91731
47753,91761
47763,91734
47773,91594
47783,91269
47793,90808
47803,90363
47813,90051
47823,89825
47834,89649
47844,89500
47854,89373
47864,89262
47874,89149
47884,89050
47894,88973
47904,88915
47915,88874
47925,88845
47935,88831
47946,88830
47956,88833
47966,88847
47976,88871
47986,88916
47996,88971
48006,89044
48016,89133
48026,89227
48036,89323
48047,89408
48057,89485
48067,89563
48077,89621
48087,89672
48097,89712
48107,89728
48118,89740
48128,89745
48139,89752
48148,89762
48159,89778
48169,89805
48179,89852
48189,89899
48199,89959
48209,90009
48219,90063
48229,90112
48239,90154
48249,90193
48260,90232
48270,90275
48280,90321
48290,90378
48300,90441
48310,90503
48321,90559
48331,90616
48341,90661
48351,90707
48361,90754
48371,90793
48382,90830
48392,90874
48402,90920
48412,90970
48422,91009
48432,91059
48442,91107
48452,91149
48462,91186
48472,91216
48483,91255
48493,91294
48503,91336
48513,91381
48524,91434
48534,91487
48544,91532
48554,91580
48564,91592
48574,91529
48584,91301
48595,90901
48605,90433
48615,90069
48625,89814
48635,89613
48645,89448
48655,89306
48665,89170
48675,89030
48685,88910
48696,88812
48706,88738
48716,88683
48727,88647
48737,88628
48747,88619
48757,88616
48767,88618
48777,88631
48787,88658
48797,88701
48808,88779
48818,88867
48828,88965
48838,89065
48848,89171
48858,89268
48868,89353
48878,89432
48888,89486
48898,89528
48908,89565
48919,89587
48929,89600
48940,89617
48950,89634
48960,89652
48970,89670
48980,89706
48990,89736
49000,89784
49010,89832
49020,89885
49030,89938
49041,89994
49051,90056
49061,90107
49071,90156
49081,90217
49091,90273
49101,90331
49111,90389
49121,90438
49132,90482
49142,90525
49153,90575
49163,90622
49173,90677
49183,90734
49193,90787
49203,90846
49213,90901
49223,90944
49233,90990
49243,91024
49254,91057
49264,91094
49274,91123
49284,91156
49294,91194
49304,91236
49314,91286
49324,91327
49335,91374
49345,91416
49355,91457
49366,91500
49376,91519
49386,91497
49396,91355
49406,91034
49416,90584
49426,90169
49436,89870
49446,89638
49456,89438
49466,89271
49476,89106
49487,88938
49497,88777
49507,88645
49517,88533
49527,88452
49538,88398
49548,88366
49558,88356
49568,88350
49578,88350
49589,88355
49599,88382
49609,88418
49619,88487
49629,88570
49639,88674
49649,88780
49659,88886
49669,88986
49679,89065
49689,89130
49700,89182
49710,89219
49720,89249
49730,89266
49740,89278
49751,89288
49761,89304
49771,89328
49781,89353
49791,89385
49801,89418
49812,89453
49822,89490
49832,89525
49842,89561
49852,89604
49862,89644
49872,89686
49882,89742
49892,89800
49902,89859
49912,89920
49923,89974
49933,90025
49943,90076
49954,90118
49964,90167
49974,90214
49984,90264
49994,90315
50004,90378
50014,90436
50025,90493
50035,90547
50045,90587
50055,90626
50065,90655
50075,90685
50085,90707
50095,90737
50105,90779
50115,90822
50125,90876
50135,90935
50146,90979
50157,91025
50167,91048
50177,91047
50187,90961
50197,90735
50207,90379
50217,90015
50227,89720
50237,89477
50247,89265
50258,89065
50268,88855
50278,88666
50288,88505
50298,88392
50308,88312
50318,88268
50328,88224
50338,88213
50348,88209
50360,88214
50370,88244
50380,88285
50390,88351
50400,88433
50410,88526
50420,88638
50430,88742
50440,88841
50450,88931
50460,89000
50470,89056
50481,89105
50491,89136
50501,89159
50511,89165
50521,89165
50531,89172
50541,89167
50551,89177
50562,89194
50572,89219
50582,89252
50593,89285
50603,89334
50613,89381
50623,89433
50633,89493
50643,89552
50653,89607
50663,89662
50673,89712
50683,89768
50693,89819
50703,89881
50714,89946
50724,90007
50734,90075
50744,90144
50754,90209
50765,90271
50775,90327
50785,90382
50795,90438
50805,90487
50816,90540
50826,90591
50836,90636
50846,90681
50856,90727
50866,90777
50876,90816
50886,90863
50896,90904
50906,90951
50916,90988
50926,91027
50937,91060
50947,91047
50957,90924
50968,90640
50978,90247
50988,89889
50998,89619
51008,89396
51018,89206
51029,89022
51038,88835
51049,88664
51059,88534
51069,88438
51079,88374
51089,88338
51099,88309
51109,88303
51119,88301
51129,88309
51139,88330
51150,88368
51160,88424
51171,88500
51181,88597
51191,88714
51201,88836
51211,88957
51221,89049
51231,89136
51241,89202
51251,89249
51262,89285
51272,89311
51282,89332
51292,89348
51302,89364
51312,89374
51322,89390
51332,89411
51342,89438
51352,89465
51363,89493
51374,89526
51384,89569
51394,89618
51404,89679
51414,89742
51424,89798
51434,89860
51444,89920
51454,89973
51464,90033
51475,90096
51485,90162
51495,90225
51505,90284
51515,90340
51525,90398
51535,90457
51545,90511
51555,90565
51565,90621
51576,90667
51586,90720
51597,90760
51607,90800
51617,90839
51627,90876
51637,90915
51647,90962
51657,90999
51667,91041
51677,91084
51687,91130
51698,91181
51708,91229
51718,91273
51728,91308
51738,91324
51748,91247
51758,91011
51769,90592
51779,90142
51789,89796
51799,89535
51810,89314
51820,89122
51830,88932
51840,88723
51850,88547
51860,88399
51870,88280
51880,88200
51890,88140
51900,88105
51910,88086
51921,88082
51931,88097
51941,88130
51951,88172
51961,88217
51971,88282
51982,88357
51992,88450
52002,88556
52012,88660
52023,88765
52033,88863
52043,88954
52053,89035
52063,89101
52073,89150
52083,89172
52093,89186
52103,89198
52113,89206
52123,89216
52133,89231
52143,89256
52154,89294
52164,89331
52175,89375
52185,89421
52195,89467
52205,89518
52215,89572
52225,89632
52235,89689
52246,89742
52255,89803
52266,89865
52276,89926
52286,89983
52296,90047
52306,90102
52316,90153
52326,90208
52336,90264
52346,90320
52356,90374
52366,90429
52377,90483
52388,90527
52398,90584
52408,90634
52418,90681
52428,90714
52438,90753
52448,90792
52458,90832
52468,90866
52478,90912
52488,90949
52499,90995
52509,91039
52519,91082
52529,91122
52539,91164
52549,91191
52559,91208
52569,91175
52579,91015
52590,90698
52600,90273
52610,89895
52620,89617
52631,89377
52641,89166
52651,88969
52661,88750
52671,88543
52681,88361
52691,88225
52701,88126
52711,88068
52722,88021
52732,88010
52742,88009
52752,88025
52762,88045
52772,88065
52783,88097
52793,88137
52803,88196
52813,88275
52823,88379
52833,88494
52844,88610
52854,88713
52864,88809
52874,88888
52884,88951
52894,89003
52904,89036
52914,89061
52924,89066
52934,89066
52944,89067
52955,89069
52965,89080
52975,89094
52985,89119
52996,89147
53006,89190
53016,89226
53026,89277
53036,89325
53046,89375
53056,89426
53066,89479
53077,89537
53087,89600
53097,89669
53107,89735
53117,89806
53127,89868
53137,89931
53147,89986
53157,90042
53167,90100
53177,90155
53188,90213
53199,90272
53209,90334
53219,90397
53229,90454
53239,90507
53249,90551
53259,90593
53269,90632
53279,90667
53289,90706
53299,90738
53310,90782
53320,90827
53330,90865
53340,90907
53350,90950
53360,90998
53370,91037
53380,91080
53391,91112
53401,91137
53412,91106
53422,90943
53432,90613
53442,90194
53452,89827
53462,89551
53472,89321
53482,89120
53492,88922
53502,88711
53512,88527
53523,88381
53533,88274
53543,88208
53553,88165
53563,88151
53573,88153
53583,88163
53594,88190
53604,88217
53614,88261
53625,88319
53634,88392
53645,88481
53655,88580
53665,88693
53675,88804
53685,88909
53695,89005
53705,89090
53715,89158
53725,89224
53735,89269
53746,89304
53756,89320
53766,89327
53776,89327
53786,89328
53797,89333
53807,89339
53817,89356
53827,89373
53837,89396
53847,89430
53857,89473
53868,89519
53878,89576
53888,89635
53898,89687
53908,89737
53918,89792
53928,89848
53938,89902
53948,89960
53958,90013
53968,90064
53978,90121
53988,90167
54000,90224
54010,90277
54020,90337
54030,90397
54040,90454
54050,90501
54060,90541
54070,90586
54080,90623
54090,90657
54100,90697
54111,90733
54121,90777
54131,90827
54141,90881
54151,90924
54161,90972
54171,91017
54181,91051
54192,91078
54202,91063
54212,90955
54223,90703
54233,90328
54243,89961
54253,89679
54263,89456
54273,89270
54283,89110
54293,88957
54303,88811
54313,88694
54323,88610
54334,88568
54344,88544
54354,88549
54364,88562
54374,88587
54384,88614
54394,88655
54405,88714
54415,88782
54425,88874
54435,88981
54445,89103
54456,89222
54466,89329
54476,89422
54486,89496
54496,89559
54506,89597
54516,89628
54526,89648
54536,89655
54546,89663
54556,89672
54567,89682
54577,89696
54587,89719
54597,89744
54608,89767
54618,89799
54628,89836
54638,89881
54648,89933
54658,89979
54668,90031
54679,90086
54689,90142
54699,90193
54709,90240
54719,90290
54729,90336
54739,90384
54749,90433
54759,90484
54769,90537
54779,90594
54790,90642
54801,90688
54811,90730
54821,90779
54831,90819
54841,90854
54851,90888
54861,90919
54871,90955
54881,90993
54891,91035
54902,91069
54912,91107
54922,91144
54932,91185
54942,91219
54952,91261
54962,91301
54972,91323
54982,91282
54992,91098
55003,90742
55013,90297
55024,89926
55034,89656
55044,89443
55054,89258
55064,89093
55074,88920
55084,88757
55094,88621
55104,88518
55114,88446
55125,88403
55134,88386
55145,88390
55155,88408
55165,88433
55175,88467
55185,88509
55195,88561
55206,88622
55216,88704
55226,88803
55237,88912
55246,89018
55257,89113
55267,89212
55277,89290
55287,89355
55297,89406
55307,89442
55317,89465
55327,89476
55337,89483
55347,89491
55357,89495
55368,89498
55378,89521
55388,89540
55398,89573
55409,89609
55419,89651
55429,89702
55439,89754
55449,89811
55459,89864
55469,89925
55480,89978
55490,90032
55500,90085
55510,90140
55520,90198
55530,90260
55540,90319
55550,90369
55560,90414
55570,90469
55580,90520
55590,90567
55602,90610
55612,90656
55622,90703
55632,90749
55642,90794
55652,90839
55662,90886
55672,90924
55682,90975
55692,91019
55702,91064
55713,91109
55723,91156
55733,91211
55743,91249
55753,91284
55763,91313
55773,91290
55783,91155
55793,90844
55804,90400
55814,89985
55824,89684
55835,89448
55845,89252
55855,89077
55865,88890
55875,88709
55885,88559
55895,88435
55905,88340
55915,88279
55925,88239
55935,88221
55945,88217
55956,88227
55966,88248
55976,88287
55986,88327
55996,88387
56007,88456
56017,88547
56027,88654
56037,88772
56047,88885
56057,88997
56068,89097
56078,89180
56088,89255
56098,89313
56108,89353
56118,89387
56128,89409
56138,89426
56148,89449
56158,89466
56168,89484
56178,89503
56189,89532
56199,89573
56210,89614
56220,89659
56230,89706
56240,89753
56250,89804
56260,89849
56270,89895
56280,89945
56291,89984
56300,90040
56311,90098
56321,90154
56331,90209
56341,90271
56351,90324
56361,90372
56371,90418
56381,90472
56391,90528
56401,90585
56412,90640
56422,90692
56433,90743
56443,90785
56453,90817
56463,90851
56473,90894
56483,90932
56493,90977
56503,91017
56513,91064
56523,91111
56534,91156
56544,91210
56554,91250
56564,91283
56574,91279
56584,91193
56594,90954
56604,90559
56615,90117
56625,89771
56635,89514
56645,89305
56656,89114
56666,88920
56676,88724
56686,88553
56696,88422
56706,88324
56716,88261
56726,88221
56736,88195
56746,88189
56756,88202
56767,88238
56777,88293
56787,88347
56797,88413
56807,88487
56818,88570
56828,88668
56838,88773
56848,88886
56858,89001
56869,89110
56879,89203
56889,89286
56899,89353
56909,89395
56919,89425
56929,89438
56939,89443
56949,89450
56959,89462
56969,89482
56979,89504
56990,89536
57000,89565
57011,89603
57021,89649
57031,89703
57041,89758
57051,89813
57061,89875
57071,89929
57081,89985
57091,90039
57102,90076
57112,90118
57122,90160
57132,90200
57142,90235
57152,90277
57162,90330
57172,90377
57182,90427
57192,90474
57203,90518
57214,90549
57224,90574
57234,90591
57244,90611
57254,90625
57264,90635
57274,90649
57284,90670
57294,90691
57305,90716
57315,90747
57325,90783
57335,90827
57345,90856
57355,90857
57365,90757
57375,90510
57385,90151
57395,89801
57405,89512
57415,89263
57427,89031
57437,88772
57447,88525
57457,88309
57467,88146
57477,88033
57487,87952
57497,87910
57507,87896
57517,87904
57528,87934
57538,87974
57548,88020
57558,88080
57568,88145
57578,88223
57588,88315
57598,88415
57608,88521
57618,88623
57629,88713
57640,88776
57650,88834
57660,88879
57670,88915
57680,88943
57690,88965
57700,88974
57710,88981
57720,88983
57730,88988
57740,88992
57750,89008
57761,89019
57771,89045
57781,89087
57791,89135
57801,89188
57811,89245
57822,89303
57832,89357
57842,89406
57852,89458
57863,89517
57873,89578
57883,89642
57893,89703
57903,89771
57913,89842
57923,89899
57933,89946
57943,89994
57953,90042
57963,90080
57974,90127
57984,90179
57994,90233
58004,90283
58014,90337
58024,90387
58035,90427
58045,90470
58055,90507
58065,90556
58076,90597
58086,90639
58096,90682
58106,90701
58116,90663
58126,90499
58136,90188
58146,89822
58156,89513
58166,89256
58176,89027
58186,88798
58197,88559
58207,88339
58217,88171
58227,88042
58238,87949
58248,87888
58258,87856
58268,87858
58278,87879
58288,87917
58298,87961
58308,88005
58319,88050
58329,88108
58339,88182
58349,88271
58359,88370
58369,88481
58379,88604
58389,88700
58399,88794
58409,88863
58419,88927
58430,88971
58441,89000
58451,89023
58461,89035
58471,89047
58481,89056
58491,89064
58501,89080
58511,89111
58521,89152
58532,89199
58542,89245
58552,89293
58562,89350
58572,89406
58582,89468
58592,89524
58602,89577
58612,89633
58622,89694
58632,89756
58644,89821
58654,89871
58664,89928
58674,89985
58684,90034
58694,90090
58704,90150
58714,90207
58724,90270
58734,90318
58744,90371
58754,90422
58765,90465
58775,90514
58785,90561
58795,90610
58805,90652
58815,90703
58825,90743
58835,90777
58846,90818
58856,90857
58866,90892
58877,90923
58887,90932
58897,90850
58907,90625
58917,90251
58927,89857
58937,89533
58947,89275
58957,89041
58967,88809
58977,88559
58987,88327
58998,88132
59008,87989
59018,87878
59028,87809
59038,87768
59049,87748
59059,87758
59069,87775
59079,87804
59089,87831
59099,87868
59109,87913
59120,87974
59130,88051
59140,88142
59150,88250
59160,88358
59170,88467
59180,88565
59190,88647
59200,88725
59210,88786
59220,88830
59230,88857
59241,88881
59251,88899
59262,88911
59272,88926
59282,88950
59292,88979
59302,89012
59312,89044
59322,89080
59333,89130
59343,89173
59353,89223
59363,89273
59373,89326
59383,89378
59393,89438
59403,89496
59413,89554
59423,89618
59433,89683
59443,89752
59453,89818
59465,89874
59475,89934
59485,90000
59495,90060
59505,90125
59515,90180
59525,90240
59535,90292
59545,90344
59555,90384
59565,90427
59576,90475
59586,90519
59596,90565
59606,90608
59616,90645
59626,90693
59636,90742
59646,90792
59657,90840
59667,90884
59677,90927
59688,90965
59698,90947
59708,90799
59718,90487
59728,90066
59738,89690
59748,89412
59758,89182
59768,88972
59778,88764
59788,88553
59798,88368
59809,88209
59819,88086
59829,87993
59839,87934
59849,87887
59859,87877
59870,87889
59880,87917
59890,87953
59900,87999
59910,88043
59920,88096
59931,88171
59941,88264
59951,88372
59961,88490
59971,88602
59981,88707
59991,88802
END
