6321,98252
6332,98234
6342,98241
6352,98259
6362,98290
6372,98315
6382,98351
6392,98386
6402,98408
6412,98433
6422,98446
6432,98457
6443,98473
6453,98485
6463,98494
6473,98507
6483,98513
6493,98516
6503,98521
6513,98524
6523,98522
6533,98520
6544,98515
6554,98512
6565,98508
6575,98503
6585,98508
6595,98508
6605,98517
6615,98522
6625,98531
6635,98540
6645,98550
6655,98558
6665,98559
6675,98572
6686,98581
6696,98590
6706,98596
6716,98605
6726,98610
6736,98615
6746,98618
6757,98621
6767,98628
6777,98637
6787,98640
6798,98645
6808,98651
6818,98653
6828,98654
6838,98641
6848,98609
6858,98561
6868,98494
6878,98413
6888,98341
6898,98283
6908,98248
6919,98243
6929,98255
6939,98278
6949,98310
6959,98347
6969,98372
6979,98407
6990,98432
7000,98450
7010,98468
7020,98480
7030,98495
7040,98509
7051,98525
7061,98541
7071,98554
7081,98560
7091,98566
7101,98571
7111,98568
7121,98558
7131,98553
7141,98554
7151,98550
7162,98550
7172,98554
7182,98559
7192,98564
7202,98575
7213,98585
7223,98589
7233,98597
7243,98600
7253,98612
7263,98617
7273,98625
7283,98631
7294,98640
7304,98652
7314,98659
7324,98665
7334,98670
7344,98677
7354,98686
7364,98691
7374,98693
7384,98693
7395,98706
7404,98710
7415,98707
7425,98694
7436,98659
7446,98601
7456,98525
7466,98444
7476,98369
7486,98301
7496,98265
7506,98257
7517,98272
7527,98289
7537,98323
7547,98356
7557,98388
7567,98413
7577,98441
7587,98463
7597,98475
7607,98490
7617,98498
7627,98511
7638,98526
7649,98541
7659,98555
7669,98562
7679,98562
7689,98558
7699,98555
7709,98549
7719,98544
7729,98542
7739,98538
7749,98537
7760,98538
7770,98539
7780,98537
7790,98543
7800,98550
7810,98563
7820,98572
7830,98582
7840,98593
7850,98616
7860,98619
7871,98632
7881,98641
7892,98648
7902,98652
7912,98661
7922,98668
7932,98678
7942,98683
7952,98687
7962,98692
7972,98692
7982,98699
7992,98697
8002,98697
8012,98678
8023,98643
8033,98586
8043,98512
8053,98429
8063,98350
8073,98285
8083,98251
8094,98245
8104,98256
8114,98280
8124,98317
8135,98351
8145,98384
8155,98409
8165,98432
8175,98453
8185,98470
8195,98482
8205,98490
8215,98502
8225,98516
8235,98528
8245,98545
8255,98556
8266,98560
8276,98566
8286,98562
8296,98566
8306,98557
8317,98549
8327,98551
8337,98547
8347,98549
8357,98551
8367,98556
8378,98562
8388,98566
8398,98578
8408,98590
8418,98601
8428,98618
8438,98631
8448,98639
8458,98649
8468,98664
8478,98671
8488,98680
8498,98687
8509,98699
8519,98705
8529,98708
8540,98715
8550,98722
8560,98729
8570,98730
8580,98730
8590,98724
8600,98704
8610,98674
8621,98613
8631,98538
8641,98459
8651,98379
8661,98316
8671,98278
8681,98268
8691,98281
8701,98308
8711,98340
8721,98377
8731,98412
8742,98438
8752,98465
8763,98479
8773,98493
8783,98507
8793,98513
8803,98533
8813,98549
8823,98561
8833,98578
8844,98585
8853,98592
8864,98594
8874,98597
8884,98595
8894,98591
8904,98589
8914,98580
8924,98580
8934,98583
8944,98587
8954,98595
8964,98600
8976,98608
8986,98615
8996,98624
9006,98634
9016,98649
9026,98663
9036,98675
9046,98684
9056,98690
9066,98704
9076,98705
9087,98713
9097,98718
9107,98728
9117,98734
9127,98743
9137,98746
9147,98751
9157,98751
9167,98750
9177,98745
9187,98727
9198,98690
9208,98638
9219,98572
9229,98498
9239,98435
9249,98386
9259,98368
9269,98363
9279,98376
9289,98398
9299,98427
9309,98455
9319,98483
9329,98501
9340,98525
9350,98538
9360,98554
9370,98563
9380,98582
9390,98590
9400,98603
9410,98615
9421,98621
9431,98628
9441,98631
9451,98629
9462,98629
9472,98622
9482,98615
9492,98612
9502,98608
9512,98609
9522,98605
9532,98612
9542,98618
9552,98626
9562,98633
9572,98641
9583,98652
9593,98664
9603,98675
9613,98685
9623,98695
9633,98702
9644,98710
9654,98711
9664,98719
9674,98732
9684,98733
9694,98735
9705,98748
9715,98753
9725,98753
9735,98755
9745,98756
9755,98753
9765,98737
9775,98708
9785,98663
9795,98601
9805,98534
9815,98467
9825,98414
9836,98379
9846,98370
9857,98377
9867,98397
9877,98420
9887,98449
9897,98478
9907,98502
9917,98522
9927,98538
9937,98551
9947,98564
9958,98572
9968,98583
9978,98595
9988,98609
9998,98620
10008,98628
10018,98635
10028,98635
10038,98633
10048,98626
10058,98623
10068,98616
10079,98614
10090,98610
10100,98612
10110,98618
10120,98623
10130,98632
10140,98633
10150,98640
10160,98647
10170,98657
10180,98667
10190,98676
10200,98685
10211,98697
10221,98705
10231,98713
10241,98722
10251,98725
10261,98734
10271,98735
10281,98747
10291,98747
10302,98751
10312,98758
10322,98758
10332,98761
10343,98750
10353,98728
10363,98684
10373,98628
10383,98551
10393,98469
10403,98393
10413,98336
10423,98304
10433,98293
10443,98299
10453,98322
10464,98349
10474,98377
10484,98400
10494,98423
10504,98441
10514,98452
10525,98463
10535,98472
10545,98475
10555,98489
10565,98501
10575,98516
10586,98530
10596,98541
10606,98542
10616,98551
10626,98548
10636,98544
10646,98533
10656,98531
10666,98528
10676,98522
10686,98529
10696,98535
10706,98543
10716,98548
10727,98556
10737,98568
10748,98580
10758,98590
10768,98604
10778,98618
10788,98626
10798,98638
10808,98650
10818,98653
10829,98666
10839,98672
10849,98672
10859,98683
10869,98689
10879,98697
10889,98699
10899,98707
10909,98712
10919,98714
10929,98712
10939,98694
10950,98659
10961,98602
10971,98522
10981,98435
10991,98349
11001,98278
11011,98229
11021,98212
11031,98219
11041,98245
11051,98285
11061,98314
11072,98348
11082,98368
11092,98387
11102,98400
11112,98410
11122,98417
11132,98424
11142,98428
11152,98440
11162,98448
11173,98454
11183,98466
11194,98469
11204,98472
11214,98469
11224,98468
11234,98463
11244,98459
11254,98458
11264,98456
11274,98455
11284,98464
11294,98465
11305,98476
11315,98484
11325,98486
11335,98498
11345,98518
11355,98533
11365,98550
11375,98568
11385,98584
11396,98592
11406,98608
11416,98621
11426,98633
11437,98637
11447,98649
11457,98663
11467,98675
11477,98683
11487,98694
11497,98702
11507,98702
11517,98706
11527,98701
11537,98678
11547,98642
11558,98584
11568,98501
11578,98423
11588,98349
11598,98284
11608,98259
11619,98251
11629,98261
11639,98287
11649,98324
11659,98367
11669,98398
11680,98429
11690,98445
11700,98469
11710,98483
11720,98495
11730,98504
11740,98518
11750,98529
11760,98546
11770,98558
11780,98571
11790,98578
11801,98583
11811,98588
11821,98589
11831,98588
11842,98588
11852,98581
11862,98581
11872,98585
11882,98585
11892,98593
11903,98598
11913,98606
11923,98612
11933,98620
11943,98631
11953,98644
11963,98652
11973,98664
11983,98670
11993,98682
12003,98691
12013,98702
12023,98710
12034,98719
12044,98728
12054,98733
12065,98735
12075,98744
12085,98745
12095,98754
12105,98755
12115,98757
12125,98755
12135,98744
12145,98721
12156,98675
12166,98607
12176,98530
12186,98455
12196,98384
12206,98333
12216,98314
12226,98312
12236,98335
12246,98361
12256,98399
12266,98428
12278,98463
12288,98490
12298,98513
12308,98528
12318,98541
12328,98549
12338,98559
12348,98574
12358,98592
12368,98604
12378,98614
12388,98619
12399,98620
12409,98626
12419,98616
12429,98608
12439,98603
12449,98594
12459,98593
12469,98592
12479,98593
12489,98602
12500,98605
12510,98611
12520,98624
12531,98635
12541,98648
12551,98658
12561,98666
12571,98675
12581,98690
12591,98698
12601,98705
12611,98707
12621,98717
12631,98721
12641,98729
12651,98739
12662,98743
12672,98751
12682,98761
12692,98762
12702,98762
12712,98760
12723,98754
12733,98734
12743,98695
12753,98641
12763,98559
12774,98478
12784,98402
12794,98339
12804,98307
12814,98306
12824,98322
12834,98344
12844,98380
12854,98412
12864,98443
12874,98471
12884,98496
12894,98516
12904,98532
12915,98551
12925,98559
12936,98574
12946,98588
12956,98603
12966,98617
12976,98626
12986,98631
12996,98631
13006,98624
13016,98620
13027,98615
13037,98607
13047,98599
13057,98601
13067,98607
13077,98611
13087,98612
13097,98621
13107,98625
13117,98638
13127,98640
13137,98650
13147,98661
13159,98669
13169,98680
13179,98683
13189,98691
13199,98700
13209,98712
13219,98715
13229,98721
13239,98726
13249,98730
13259,98733
13269,98734
13279,98739
13290,98731
13300,98735
13310,98724
13320,98688
13330,98628
13340,98555
13350,98452
13360,98356
13370,98256
13381,98180
13391,98139
13402,98135
13412,98157
13422,98193
13432,98235
13442,98285
13452,98319
13462,98350
13472,98372
13482,98389
13492,98401
13502,98412
13512,98425
13523,98441
13533,98457
13543,98466
13553,98472
13563,98481
13573,98481
13583,98474
13594,98469
13604,98459
13614,98451
13624,98443
13634,98436
13645,98433
13655,98433
13665,98437
13675,98443
13685,98448
13695,98459
13705,98465
13715,98479
13725,98492
13735,98506
13745,98521
13755,98535
13766,98547
13776,98558
13786,98570
13796,98581
13806,98594
13817,98601
13827,98605
13837,98617
13847,98621
13857,98630
13867,98635
13878,98637
13888,98622
13898,98601
13908,98550
13918,98478
13928,98368
13938,98240
13948,98105
13958,97982
13968,97898
13978,97851
13989,97837
13999,97855
14009,97889
14019,97928
14029,97975
14040,98018
14050,98060
14060,98091
14070,98114
14080,98136
14090,98152
14100,98173
14111,98197
14121,98220
14131,98241
14141,98263
14151,98273
14161,98283
14171,98284
14181,98283
14191,98288
14201,98283
14211,98276
14221,98269
14232,98272
14242,98269
14252,98276
14263,98286
14273,98294
14283,98314
14293,98328
14303,98342
14313,98358
14323,98380
14333,98396
14344,98411
14354,98430
14364,98439
14374,98453
14384,98463
14394,98478
14404,98488
14414,98498
14424,98507
14434,98514
14444,98520
14454,98528
14464,98532
14476,98524
14486,98499
14496,98454
14506,98375
14516,98256
14526,98127
14536,97981
14546,97863
14556,97795
14566,97760
14576,97763
14586,97783
14597,97821
14607,97878
14617,97935
14627,97987
14637,98038
14647,98076
14657,98107
14667,98132
14677,98151
14687,98173
14697,98196
14708,98224
14719,98243
14729,98261
14739,98271
14749,98283
14759,98284
14769,98286
14779,98276
14789,98274
14799,98271
14809,98267
14820,98267
14829,98273
14840,98281
14850,98287
14860,98298
14870,98314
14880,98319
14890,98338
14900,98354
14910,98375
14920,98394
14931,98406
14941,98425
14952,98435
14962,98451
14972,98463
14982,98478
14992,98487
15002,98499
15012,98508
15022,98517
15032,98526
15042,98534
15052,98538
15062,98543
15072,98532
15082,98505
15093,98446
15103,98360
15113,98259
15123,98137
15133,98007
15143,97916
15154,97862
15164,97856
15174,97871
15184,97919
15195,97967
15205,98026
15215,98089
15225,98131
15235,98175
15245,98199
15255,98222
15265,98235
15275,98255
15285,98275
15295,98292
15305,98315
15316,98325
15326,98341
15336,98345
15346,98356
15356,98354
15367,98348
15377,98347
15387,98344
15397,98338
15407,98345
15417,98343
15427,98348
15438,98362
15448,98365
15458,98378
15468,98389
15478,98404
15488,98418
15498,98435
15508,98448
15518,98465
15528,98477
15538,98485
15548,98497
15558,98505
15569,98518
15579,98524
15589,98534
15600,98541
15610,98551
15620,98558
15630,98566
15640,98569
15650,98574
15660,98576
15670,98565
15681,98536
15691,98478
15701,98400
15711,98305
15721,98197
15731,98098
15741,98015
15751,97976
15761,97979
15771,97995
15781,98043
15791,98092
15801,98138
15812,98188
15823,98225
15833,98255
15843,98279
15853,98300
15863,98312
15873,98329
15883,98344
15893,98360
15903,98377
15913,98388
15924,98395
15934,98396
15944,98402
15954,98399
15964,98393
15974,98386
15984,98387
15994,98383
16004,98383
16014,98394
16024,98396
16034,98407
16045,98425
16056,98433
16066,98448
16076,98465
16086,98480
16096,98492
16106,98505
16116,98515
16126,98531
16136,98543
16146,98555
16156,98565
16167,98572
16177,98583
16187,98588
16197,98592
16207,98598
16217,98603
16227,98612
16237,98615
16247,98618
16258,98604
16269,98580
16279,98523
16289,98442
16299,98363
16309,98276
16319,98198
16329,98138
16339,98111
16349,98121
16359,98148
16369,98193
16379,98230
16389,98266
16400,98298
16410,98332
16420,98355
16430,98373
16440,98384
16450,98398
16460,98412
16471,98427
16481,98438
16491,98457
16501,98468
16511,98476
16522,98488
16532,98487
16542,98482
16552,98478
16562,98474
16572,98471
16582,98469
16592,98471
16602,98475
16612,98478
16622,98486
16632,98494
16643,98504
16653,98520
16663,98530
16673,98542
16683,98554
16694,98564
16704,98572
16714,98587
16724,98601
16734,98610
16744,98621
16755,98627
16765,98633
16775,98638
16785,98649
16795,98653
16805,98659
16815,98663
16825,98663
16835,98664
16845,98653
16855,98625
16865,98576
16875,98506
16886,98417
16896,98335
16906,98252
16917,98193
16927,98171
16937,98180
16947,98201
16957,98238
16967,98278
16977,98318
16987,98347
16997,98382
17008,98399
17018,98421
17028,98431
17038,98440
17048,98450
17058,98464
17068,98481
17078,98489
17088,98504
17098,98517
17108,98521
17119,98528
17129,98524
17140,98524
17150,98518
17160,98514
17170,98517
17180,98514
17190,98516
17200,98519
17210,98524
17220,98536
17230,98542
17241,98551
17251,98558
17261,98572
17271,98582
17281,98592
17291,98603
17301,98615
17311,98627
17321,98636
17331,98643
17341,98652
17351,98654
17363,98668
17373,98672
17383,98678
17393,98687
17403,98688
17413,98691
17423,98692
17433,98693
17443,98678
17453,98648
17463,98595
17473,98519
17483,98431
17494,98347
17504,98277
17514,98233
17524,98215
17534,98226
17544,98256
17554,98295
17564,98328
17575,98362
17585,98391
17595,98415
17606,98431
17616,98453
17626,98453
17636,98460
17646,98475
17656,98485
17666,98496
17676,98502
17686,98507
17696,98513
17706,98516
17716,98510
17726,98509
17737,98512
17747,98502
17757,98494
17767,98493
17777,98493
17787,98493
17798,98492
17808,98496
17818,98505
17828,98509
17838,98519
17848,98529
17859,98537
17869,98552
17879,98558
17889,98573
17899,98581
17909,98596
17919,98599
17929,98610
17939,98620
17949,98627
17959,98637
17969,98642
17980,98648
17990,98653
18000,98656
18010,98662
18021,98659
18031,98661
18041,98648
18051,98612
18061,98549
18071,98466
18081,98369
18092,98257
18102,98148
18112,98072
18122,98035
18132,98032
18142,98049
18152,98090
18162,98136
18172,98188
18182,98230
18192,98268
18203,98298
18213,98321
18223,98337
18233,98350
18244,98364
18254,98377
18264,98394
18274,98406
18284,98426
18294,98435
18304,98442
18314,98447
18325,98450
18335,98445
18345,98444
18355,98435
18365,98434
18375,98435
18385,98439
18395,98440
18405,98450
18415,98458
18425,98470
18435,98484
18445,98501
18456,98514
18467,98523
18477,98535
18487,98552
18497,98566
18507,98573
18517,98586
18527,98596
18537,98608
18547,98619
18557,98627
18568,98632
18578,98639
18588,98647
18598,98655
18608,98660
18618,98665
18628,98662
18638,98658
18648,98634
18658,98589
18668,98523
18680,98437
18690,98343
18700,98241
18710,98166
18720,98124
18730,98113
18740,98133
18750,98171
18760,98219
18770,98268
18780,98307
18790,98347
18800,98380
18811,98398
18821,98413
18831,98433
18841,98451
18851,98464
18861,98479
18871,98496
18881,98512
18891,98519
18902,98523
18912,98525
18922,98524
18933,98516
18943,98514
18953,98507
18963,98509
18973,98503
18983,98506
18993,98510
19003,98518
19013,98525
19023,98536
19033,98547
19043,98560
19054,98570
19064,98581
19074,98597
19084,98610
19094,98624
19104,98636
19114,98644
19125,98650
19135,98660
19145,98666
19155,98677
19165,98679
19176,98687
19186,98693
19196,98696
19206,98704
19216,98702
19226,98705
19236,98697
19246,98679
19256,98642
19266,98575
19276,98495
19286,98406
19297,98322
19307,98247
19317,98202
19327,98189
19337,98200
19348,98232
19358,98277
19368,98320
19378,98360
19388,98401
19398,98427
19408,98447
19419,98465
19429,98480
19439,98494
19449,98508
19459,98517
19469,98531
19479,98546
19489,98551
19499,98557
19509,98562
19519,98558
19529,98554
19540,98547
19550,98539
19560,98534
19571,98529
19581,98534
19591,98534
19601,98542
19611,98546
19621,98556
19631,98569
19641,98580
19651,98594
19661,98604
19672,98613
19682,98626
19692,98638
19702,98650
19712,98660
19722,98667
19732,98676
19742,98689
19752,98693
19762,98699
19772,98706
19783,98711
19794,98718
19804,98716
19814,98721
19824,98709
19834,98691
19844,98648
19854,98583
19864,98499
19874,98410
19884,98320
19894,98244
19904,98201
19915,98192
19925,98207
19935,98240
19945,98282
19955,98321
19965,98361
19975,98395
19985,98422
19996,98438
20006,98457
20016,98473
20026,98486
20037,98503
20047,98518
20057,98538
20067,98541
20077,98556
20087,98567
20097,98565
20107,98570
20117,98563
20127,98564
20138,98558
20148,98553
20158,98552
20168,98552
20178,98557
20188,98556
20198,98561
20208,98573
20219,98582
20229,98591
20239,98606
20249,98619
20260,98630
20270,98635
20280,98652
20290,98659
20300,98670
20310,98679
20320,98685
20330,98693
20340,98698
20350,98704
20360,98710
20370,98719
20380,98721
20391,98729
20401,98731
20411,98722
20421,98701
20432,98656
20442,98587
20452,98505
20462,98404
20472,98306
20482,98226
20492,98172
20503,98159
20512,98174
20523,98200
20533,98244
20543,98293
20553,98339
20563,98373
20573,98402
20583,98424
20593,98441
20603,98454
20613,98468
20624,98483
20633,98503
20644,98510
20655,98525
20665,98539
20675,98544
20685,98549
20695,98548
20705,98546
20715,98550
20725,98545
20735,98541
20745,98539
20756,98538
20766,98540
20776,98540
20786,98551
20796,98559
20806,98563
20816,98582
20826,98595
20836,98605
20846,98619
20856,98628
20866,98647
20877,98652
20888,98660
20898,98680
20908,98682
20918,98693
20928,98699
20938,98710
20948,98715
20958,98718
20968,98724
20978,98725
20988,98729
20998,98722
21008,98703
21019,98657
21029,98598
21039,98510
21049,98416
21059,98324
21069,98243
21079,98196
21089,98177
21100,98186
21110,98220
21120,98257
21131,98300
21141,98342
21151,98376
21161,98406
21171,98429
21181,98448
21191,98458
21201,98475
21211,98486
21221,98496
21231,98513
21241,98528
21251,98544
21262,98545
21272,98549
21282,98552
21292,98554
21302,98549
21313,98538
21323,98536
21333,98533
21343,98536
21353,98537
21363,98538
21373,98549
21383,98554
21394,98565
21404,98578
21414,98589
21424,98602
21434,98615
21444,98629
21454,98643
21464,98658
21474,98671
21484,98680
21495,98692
21505,98701
21515,98709
21525,98715
21536,98719
21546,98730
21556,98731
21566,98734
21576,98732
21586,98727
21596,98710
21607,98669
21616,98609
21627,98521
21637,98429
21647,98322
21657,98232
21667,98167
21677,98150
21687,98155
21697,98185
21707,98225
21717,98265
21728,98307
21737,98347
21748,98377
21759,98401
21769,98422
21779,98435
21789,98450
21799,98463
21809,98481
21819,98497
21829,98513
21839,98519
21849,98526
21859,98525
21869,98525
21880,98522
21890,98513
21900,98513
21910,98505
21920,98509
21930,98506
21940,98510
21950,98510
21960,98517
21971,98526
21981,98538
21991,98546
22002,98561
22012,98574
22022,98589
22032,98602
22042,98612
22052,98627
22062,98641
22072,98651
22082,98662
22092,98670
22102,98681
22113,98685
22123,98692
22133,98696
22143,98703
22153,98704
22163,98710
22173,98707
22183,98688
22194,98655
22204,98600
22214,98519
22225,98431
22235,98338
22245,98255
22255,98195
22265,98166
22275,98170
22285,98197
22295,98237
22305,98279
22315,98322
22325,98361
22335,98393
22345,98421
22356,98434
22366,98453
22376,98465
22386,98489
22396,98500
22406,98517
22417,98526
22427,98534
22437,98539
22447,98532
22457,98528
22467,98525
22478,98512
22488,98506
22498,98500
22508,98497
22518,98503
22528,98506
22538,98508
22548,98523
22558,98532
22569,98542
22578,98556
22588,98573
22599,98582
22609,98597
22619,98610
22629,98625
22640,98633
22650,98638
22660,98649
22670,98657
22680,98662
22690,98668
22700,98679
22711,98681
22721,98687
22731,98692
22741,98693
22751,98688
22761,98678
22771,98649
22781,98585
22791,98503
22801,98408
22811,98303
22821,98199
22832,98128
22842,98089
22852,98082
22863,98095
22873,98129
22883,98177
22893,98226
22903,98271
22913,98312
22923,98338
22933,98369
22944,98381
22954,98400
22964,98413
22974,98434
22984,98453
22994,98467
23004,98480
23014,98486
23024,98488
23034,98488
23044,98484
23055,98478
23065,98466
23075,98465
23086,98460
23096,98462
23106,98469
23116,98477
23126,98482
23136,98492
23146,98506
23156,98512
23166,98530
23177,98548
23187,98561
23197,98574
23207,98588
23217,98599
23227,98614
23237,98619
23247,98629
23257,98638
23267,98647
23278,98654
23288,98662
23299,98674
23309,98677
23319,98685
23329,98682
23339,98672
23349,98647
23359,98598
23369,98516
23379,98418
23389,98301
23400,98185
23410,98089
23420,98038
23430,98018
23440,98031
23450,98067
23460,98116
23470,98164
23480,98211
23490,98253
23500,98286
23510,98310
23522,98328
23532,98348
23542,98363
23552,98386
23562,98398
23572,98422
23582,98434
23592,98449
23602,98459
23612,98464
23622,98463
23633,98456
23643,98455
23653,98450
23663,98447
23673,98448
23683,98452
23693,98454
23703,98456
23713,98469
23723,98473
23734,98485
23745,98498
23755,98510
23765,98527
23775,98537
23785,98554
23795,98570
23805,98583
23815,98593
23825,98602
23835,98613
23845,98628
23855,98631
23866,98641
23876,98647
23886,98654
23896,98660
23906,98663
23916,98656
23926,98643
23936,98609
23946,98545
23957,98456
23967,98340
23977,98210
23988,98084
23998,98002
24008,97955
24018,97938
24028,97952
24038,97983
24048,98025
24058,98073
24068,98119
24078,98165
24088,98201
24098,98226
24108,98251
24118,98270
24129,98290
24139,98310
24149,98330
24159,98349
24170,98369
24180,98385
24190,98394
24200,98404
24210,98402
24220,98399
24230,98397
24241,98390
24251,98385
24261,98387
24271,98388
24281,98394
24291,98396
24301,98410
24311,98423
24321,98434
24331,98445
24341,98455
24351,98473
24362,98485
24372,98498
24382,98505
24393,98518
24403,98532
24413,98544
24423,98554
24433,98567
24443,98581
24454,98590
24463,98601
24474,98610
24484,98613
24494,98615
24504,98618
24514,98607
24524,98580
24534,98522
24544,98440
24554,98332
24564,98194
24574,98053
24584,97939
24595,97881
24605,97861
24616,97865
24626,97889
24636,97925
24646,97979
24656,98032
24666,98082
24676,98124
24686,98164
24696,98193
24707,98219
24717,98237
24727,98255
24737,98278
24747,98303
24757,98324
24767,98342
24777,98351
24787,98360
24797,98359
24807,98369
24818,98368
24829,98368
24839,98365
24849,98367
24859,98366
24869,98374
24879,98379
24889,98396
24899,98407
24909,98424
24919,98440
24929,98455
24940,98471
24950,98492
24960,98503
24970,98517
24980,98537
24990,98551
25000,98561
25010,98576
25020,98585
25030,98596
25040,98606
25051,98609
25061,98622
25072,98627
25082,98633
25092,98639
25102,98643
25112,98635
25122,98620
25132,98584
25142,98515
25152,98424
25162,98302
25172,98175
25182,98052
25192,97977
25203,97942
25213,97940
25223,97965
25233,98003
25243,98056
25253,98111
25264,98165
25274,98207
25284,98241
25294,98263
25304,98285
25314,98308
25325,98330
25335,98352
25345,98375
25355,98395
25365,98404
25375,98413
25385,98418
25395,98414
25405,98407
25415,98395
25425,98385
25436,98382
25445,98379
25456,98383
25466,98385
25476,98387
25487,98397
25497,98406
25507,98417
25517,98428
25527,98442
25537,98455
25547,98468
25557,98481
25567,98495
25578,98505
25588,98520
25598,98527
25608,98534
25618,98546
25628,98551
25638,98563
25648,98575
25658,98579
25668,98587
25678,98589
25689,98597
25700,98596
25710,98585
25720,98562
25730,98518
25740,98444
25750,98335
25760,98196
25770,98044
25780,97919
25790,97831
25800,97792
25810,97781
25821,97793
25831,97821
25841,97853
25851,97899
25861,97946
25871,97988
25881,98029
25891,98065
25901,98099
25911,98120
25921,98149
25932,98170
25942,98200
25953,98227
25963,98249
25973,98260
25983,98268
25993,98270
26003,98269
26013,98258
26023,98250
26033,98245
26043,98244
26053,98249
26063,98254
26074,98269
26084,98281
26094,98296
26104,98315
26114,98336
26124,98361
26134,98378
26144,98402
26155,98420
26165,98435
26175,98450
26186,98467
26196,98475
26206,98487
26216,98498
26226,98511
26236,98513
26246,98528
26256,98533
26266,98542
26276,98546
26286,98551
26296,98551
26307,98540
26317,98495
26327,98423
26337,98323
26347,98172
26357,98013
26368,97872
26378,97785
26388,97735
26398,97717
26408,97723
26418,97749
26429,97786
26439,97831
26449,97876
26459,97917
26469,97953
26479,97989
26489,98020
26499,98051
26509,98074
26519,98102
26529,98138
26539,98168
26549,98192
26560,98213
26570,98228
26581,98240
26591,98242
26601,98239
26611,98232
26621,98228
26631,98214
26641,98207
26651,98206
26661,98202
26671,98210
26682,98227
26692,98241
26702,98258
26712,98282
26722,98301
26732,98320
26742,98339
26752,98363
26762,98375
26772,98396
26782,98413
26793,98429
26804,98447
26814,98459
26824,98471
26834,98487
26844,98499
26854,98509
26864,98524
26874,98528
26884,98526
26894,98522
26904,98510
26915,98467
26925,98396
26935,98269
26945,98106
26955,97942
26965,97805
26975,97715
26985,97664
26995,97649
27005,97656
27016,97676
27027,97705
27037,97738
27047,97772
27057,97804
27067,97833
27077,97852
27087,97873
27097,97897
27107,97916
27117,97947
27127,97978
27137,98010
27147,98043
27157,98067
27168,98084
27178,98107
27188,98119
27198,98120
27208,98130
27218,98126
27228,98120
27239,98119
27249,98117
27259,98118
27269,98123
27279,98139
27290,98144
27300,98168
27310,98190
27320,98219
27330,98245
27340,98271
27350,98297
27360,98318
27370,98330
27380,98353
27390,98365
27401,98381
27411,98394
27421,98404
27431,98413
27441,98424
27451,98432
27462,98450
27472,98452
27482,98470
27492,98477
27502,98476
27512,98449
27523,98397
27533,98305
27543,98165
27553,97984
27563,97831
27573,97724
27583,97660
27593,97630
27603,97623
27613,97639
27623,97665
27634,97704
27644,97738
27654,97779
27664,97805
27675,97822
27685,97834
27695,97846
27705,97850
27715,97859
27725,97872
27735,97888
27745,97914
27755,97936
27766,97957
27776,97971
27786,97983
27796,97989
27806,97995
27816,97995
27826,97988
27836,97981
27846,97983
27856,97987
27866,98000
27876,98014
27887,98024
27898,98043
27908,98057
27918,98077
27928,98103
27938,98128
27948,98156
27958,98176
27968,98204
27978,98231
27988,98255
27998,98279
28008,98298
28019,98319
28029,98338
28039,98358
28049,98377
28059,98386
28069,98401
28079,98410
28089,98414
28099,98417
28109,98420
28120,98399
28131,98349
28141,98249
28151,98097
28161,97922
28171,97764
28181,97653
28191,97586
28201,97553
28211,97549
28221,97558
28232,97590
28242,97626
28252,97664
28262,97703
28272,97742
28282,97774
28292,97806
28302,97829
28312,97855
28322,97886
28333,97907
28343,97939
28353,97974
28364,98001
28374,98033
28384,98048
28394,98058
28404,98065
28414,98068
28424,98058
28434,98051
28444,98048
28454,98047
28464,98052
28474,98057
28485,98069
28495,98084
28505,98102
28515,98124
28525,98159
28535,98180
28545,98213
28556,98238
28566,98266
28576,98291
28586,98316
28596,98340
28607,98353
28617,98377
28627,98391
28637,98403
28647,98416
28657,98426
28667,98441
28677,98450
28687,98464
28697,98471
28707,98484
28717,98482
28727,98475
28738,98433
28748,98365
28758,98258
28768,98102
28779,97940
28789,97811
28799,97720
28809,97682
28819,97673
28829,97690
28839,97723
28850,97774
28860,97834
28870,97896
28880,97955
28890,98012
28900,98061
28910,98103
28920,98135
28930,98161
28940,98194
28950,98223
28960,98248
28970,98263
28981,98279
28992,98284
29002,98285
29012,98277
29022,98270
29032,98264
29042,98257
29052,98256
29062,98261
29072,98266
29082,98274
29092,98281
29103,98293
29113,98317
29123,98333
29133,98353
29143,98371
29153,98389
29163,98410
29173,98431
29183,98450
29193,98463
29203,98480
29214,98487
29225,98505
29235,98513
29245,98523
29255,98535
29265,98543
29275,98557
29285,98563
29295,98578
29305,98575
29315,98578
29325,98566
29335,98520
29345,98447
29356,98346
29366,98213
29376,98049
29386,97907
29396,97804
29406,97750
29416,97732
29427,97736
29437,97761
29447,97797
29458,97844
29468,97895
29478,97950
29488,97992
29498,98030
29508,98065
29518,98095
29528,98122
29538,98149
29548,98184
29558,98207
29569,98234
29578,98247
29589,98252
29599,98259
29609,98249
29619,98249
29629,98236
29640,98222
29650,98218
29660,98220
29670,98223
29680,98233
29690,98247
29700,98262
29711,98283
29721,98301
29731,98323
29741,98341
29751,98361
29761,98374
29771,98392
29781,98405
29791,98410
29801,98428
29811,98437
29821,98446
29832,98454
29842,98465
29853,98477
29863,98484
29873,98498
29883,98512
29893,98518
29903,98522
29913,98516
29923,98487
29933,98431
29943,98334
29954,98178
29964,97986
29974,97814
29984,97696
29994,97620
30004,97587
30014,97576
30024,97591
30034,97618
30044,97647
30054,97693
30065,97739
30076,97780
30086,97817
30096,97849
30106,97875
30116,97895
30126,97923
30136,97956
30146,97990
30156,98029
30166,98050
30176,98080
30186,98098
30197,98104
30207,98105
30217,98099
30227,98096
30237,98088
30247,98076
30257,98075
30267,98074
30277,98083
30288,98092
30298,98107
30309,98122
30319,98139
30329,98161
30339,98184
30349,98207
30359,98232
30369,98249
30379,98276
30389,98297
30399,98317
30409,98332
30419,98351
30430,98365
30440,98374
30450,98392
30460,98405
30470,98418
30480,98429
30490,98435
30501,98435
30511,98427
30521,98397
30531,98325
30542,98199
30552,98002
30562,97808
30572,97670
30582,97575
30592,97529
30602,97524
30612,97528
30622,97557
30632,97582
30642,97622
30652,97659
30663,97698
30673,97734
30683,97757
30693,97776
30703,97790
30713,97800
30724,97808
30734,97828
30744,97837
30754,97856
30764,97873
30774,97887
30785,97893
30795,97890
30805,97879
30815,97868
30825,97856
30835,97847
30845,97846
30855,97841
30865,97850
30875,97858
30885,97874
30895,97887
30906,97903
30916,97927
30926,97949
30937,97983
30947,98020
30957,98056
30967,98091
30977,98130
30987,98161
30997,98187
31007,98217
31018,98239
31028,98256
31038,98278
31048,98293
31058,98312
31068,98332
31078,98343
31088,98352
31098,98361
31108,98358
31118,98347
31128,98298
31139,98199
31149,98037
31160,97838
31170,97680
31180,97569
31190,97495
31200,97461
31210,97452
31220,97463
31230,97482
31240,97515
31251,97544
31261,97578
31271,97608
31281,97634
31291,97657
31301,97678
31311,97693
31321,97715
31331,97738
31341,97774
31351,97808
31361,97841
31372,97864
31382,97883
31393,97895
31403,97891
31413,97879
31423,97866
31433,97849
31443,97830
31453,97824
31463,97832
31473,97841
31483,97858
31493,97882
31503,97911
31514,97937
31524,97969
31534,98004
31544,98040
31554,98078
31564,98110
31574,98139
31584,98168
31595,98188
31605,98211
31615,98231
31625,98246
31636,98262
31646,98281
31656,98301
31666,98313
31676,98325
31686,98335
31696,98340
31706,98344
31716,98341
31726,98319
31736,98267
31746,98151
31757,97980
31767,97794
31777,97647
31787,97545
31797,97483
31808,97458
31818,97455
31828,97469
31838,97492
31848,97526
31858,97556
31868,97595
31879,97628
31889,97656
31899,97682
31909,97709
31919,97728
31929,97749
31939,97784
31949,97821
31959,97854
31969,97886
31979,97905
31989,97916
32000,97921
32010,97913
32021,97894
32031,97876
32041,97860
32051,97848
32061,97845
32071,97843
32081,97851
32091,97866
32101,97888
32111,97916
32121,97937
32132,97969
32142,97999
32152,98031
32162,98066
32172,98091
32182,98119
32192,98146
32202,98165
32212,98189
32222,98209
32232,98226
32243,98245
32253,98257
32264,98275
32274,98292
32284,98298
32294,98314
32304,98319
32314,98313
32324,98298
32334,98242
32344,98141
32354,97978
32364,97806
32375,97653
32385,97539
32395,97472
32405,97437
32415,97428
32425,97435
32435,97456
32445,97487
32456,97521
32466,97556
32476,97590
32486,97630
32496,97654
32507,97674
32517,97690
32527,97711
32537,97735
32547,97763
32557,97790
32567,97813
32577,97835
32587,97855
32597,97859
32607,97860
32617,97849
32628,97835
32638,97817
32648,97806
32658,97802
32668,97797
32679,97804
32689,97812
32699,97835
32709,97858
32719,97886
32729,97912
32739,97947
32750,97977
32760,98011
32770,98040
32780,98066
32790,98096
32800,98120
32810,98146
32820,98173
32830,98194
32840,98213
32850,98234
32860,98248
32871,98263
32881,98268
32892,98281
32902,98282
32912,98275
32922,98251
32932,98185
32942,98062
32952,97892
32962,97717
32972,97588
32983,97498
32993,97436
33003,97415
33013,97415
33023,97429
33033,97458
33043,97493
33053,97524
33063,97557
33073,97585
33083,97610
33093,97622
33105,97634
33115,97649
33125,97662
33135,97690
33145,97720
33155,97756
33165,97774
33175,97793
33185,97803
33195,97801
33205,97795
33215,97784
33226,97766
33236,97752
33246,97748
33256,97745
33266,97750
33276,97760
33286,97778
33296,97800
33306,97824
33316,97855
33327,97886
33337,97919
33348,97951
33358,97983
33368,98018
33378,98046
33388,98079
33398,98110
33408,98136
33418,98158
33428,98183
33438,98202
33448,98220
33458,98230
33468,98243
33478,98251
33489,98257
33499,98261
33509,98264
33519,98248
33529,98207
33539,98113
33550,97966
33560,97773
33570,97607
33580,97481
33591,97403
33600,97360
33611,97345
33621,97348
33631,97352
33641,97369
33651,97384
33661,97400
33671,97405
33681,97414
33691,97417
33701,97414
33712,97408
33722,97408
33732,97409
33742,97422
33752,97440
33763,97454
33773,97464
33783,97470
33793,97473
33803,97480
33813,97477
33823,97476
33833,97471
33844,97475
33854,97467
33864,97470
33874,97480
33884,97490
33894,97508
33904,97535
33914,97563
33924,97593
33934,97625
33944,97655
33955,97686
33964,97725
33975,97759
33986,97799
33996,97842
34006,97884
34016,97925
34026,97962
34036,97990
34046,98014
34056,98035
34066,98058
34077,98080
34087,98104
34097,98121
34107,98136
34117,98147
34127,98149
34137,98129
34147,98066
34157,97930
34167,97757
34177,97587
34187,97457
34199,97364
34209,97312
34219,97292
34229,97294
34239,97300
34249,97321
34259,97350
34269,97377
34279,97408
34289,97438
34299,97465
34309,97477
34319,97495
34330,97504
34340,97527
34350,97548
34360,97582
34370,97608
34380,97638
34390,97664
34400,97681
34410,97689
34421,97689
34431,97687
34441,97673
34451,97669
34461,97668
34471,97669
34482,97673
34492,97687
34502,97701
34512,97711
34522,97728
34532,97753
34542,97785
34552,97818
34562,97853
34572,97887
34582,97926
34593,97957
34603,97992
34613,98022
34623,98053
34634,98078
34644,98102
34654,98130
34664,98152
34674,98173
34684,98187
34694,98202
34704,98217
34714,98236
34724,98245
34735,98255
34745,98259
34755,98254
34765,98214
34775,98144
34785,98016
34795,97838
34805,97658
34815,97524
34825,97431
34835,97376
34847,97356
34857,97359
34867,97378
34877,97398
34887,97435
34897,97468
34907,97496
34917,97523
34927,97542
34937,97563
34947,97581
34957,97601
34967,97624
34978,97642
34988,97678
34998,97703
35008,97723
35018,97741
35028,97749
35038,97750
35048,97745
35058,97727
35069,97707
35079,97697
35089,97687
35099,97690
35110,97701
35120,97713
35130,97728
35140,97748
35150,97768
35160,97791
35170,97818
35180,97847
35190,97881
35200,97902
35210,97933
35221,97959
35231,97989
35241,98012
35251,98033
35261,98060
35271,98079
35281,98103
35292,98126
35302,98144
35312,98164
35322,98170
35332,98182
35343,98186
35353,98194
35363,98198
35373,98188
35383,98143
35393,98058
35403,97918
35413,97729
35423,97550
35433,97420
35443,97330
35453,97283
35464,97272
35474,97277
35484,97292
35494,97314
35504,97343
35515,97375
35525,97408
35535,97433
35545,97457
35555,97472
35565,97486
35575,97500
35585,97524
35596,97547
35606,97573
35616,97601
35626,97620
35636,97633
35646,97642
35656,97638
35666,97629
35676,97610
35686,97596
35696,97583
35706,97571
35717,97574
35728,97579
35738,97595
35748,97609
35758,97627
35768,97656
35778,97684
35788,97716
35798,97754
35808,97794
35818,97827
35828,97863
35838,97890
35849,97922
35859,97948
35869,97981
35879,98005
35889,98032
35899,98057
35909,98081
35919,98098
35929,98111
35939,98134
35950,98145
35960,98150
35971,98160
35981,98151
35991,98109
36001,98025
36011,97873
36021,97682
36031,97515
36041,97388
36051,97298
36061,97254
36071,97233
36081,97234
36091,97248
36102,97271
36112,97301
36122,97330
36132,97361
36142,97391
36152,97410
36163,97431
36173,97447
36183,97462
36193,97483
36203,97504
36213,97541
36223,97572
36234,97596
36244,97611
36254,97609
36264,97602
36274,97588
36284,97569
36294,97558
36304,97545
36314,97534
36324,97521
36334,97517
36344,97507
36354,97512
36365,97505
36376,97506
36386,97509
36396,97507
36406,97512
36416,97527
36426,97544
36436,97566
36446,97587
36456,97616
36466,97635
36476,97655
36487,97673
36497,97702
36507,97728
36517,97759
36527,97786
36537,97806
36547,97825
36557,97851
36567,97872
36577,97888
36587,97901
36598,97898
36609,97865
36619,97781
36629,97640
36639,97471
36649,97317
36659,97185
36669,97098
36679,97039
36689,97008
36699,97003
36709,97008
36719,97030
36729,97058
36740,97088
36750,97126
36760,97152
36770,97185
36780,97208
36790,97226
36800,97238
36811,97249
36821,97271
36831,97304
36841,97333
36852,97379
36862,97419
36872,97452
36882,97462
36892,97465
36902,97452
36912,97447
36922,97429
36932,97410
36942,97397
36952,97380
36962,97372
36973,97376
36983,97379
36993,97387
37003,97403
37013,97419
37023,97448
37034,97466
37044,97485
37054,97508
37064,97530
37074,97542
37084,97566
37094,97582
37105,97610
37115,97635
37125,97659
37135,97679
37145,97699
37155,97713
37165,97729
37175,97751
37185,97765
37195,97781
37205,97793
37215,97807
37226,97813
37236,97808
37246,97774
37256,97689
37267,97539
37277,97370
37287,97209
37297,97077
37307,96988
37317,96938
37327,96919
37337,96913
37348,96936
37358,96956
37368,96988
37378,97022
37388,97052
37398,97087
37408,97111
37418,97140
37428,97159
37438,97180
37448,97200
37459,97232
37469,97266
37480,97306
37490,97336
37500,97373
37510,97397
37520,97413
37530,97426
37540,97424
37550,97420
37560,97417
37570,97416
37580,97421
37591,97431
37601,97450
37611,97467
37621,97493
37631,97527
37641,97571
37651,97614
37661,97652
37671,97685
37681,97720
37691,97746
37702,97775
37713,97799
37723,97816
37733,97836
37743,97860
37753,97888
37763,97914
37773,97940
37783,97963
37793,97990
37803,98009
37813,98031
37823,98048
37834,98062
37844,98065
37854,98069
37864,98079
37874,98077
37884,98053
37894,98007
37904,97914
37914,97768
37925,97590
37935,97421
37945,97296
37955,97218
37966,97177
37976,97162
37986,97167
37996,97189
38006,97216
38016,97257
38026,97301
38036,97344
38046,97383
38056,97418
38066,97449
38077,97471
38087,97492
38097,97522
38107,97566
38117,97606
38127,97650
38137,97683
38148,97708
38158,97725
38168,97734
38178,97739
38188,97736
38199,97734
38209,97734
38219,97738
38229,97755
38239,97773
38249,97796
38259,97821
38269,97848
38279,97874
38289,97897
38299,97923
38310,97941
38320,97961
38330,97977
38340,98004
38350,98029
38360,98047
38371,98069
38381,98089
38391,98108
38401,98129
38411,98142
38421,98158
38431,98174
38441,98184
38452,98202
38462,98212
38472,98217
38482,98222
38492,98231
38502,98222
38512,98210
38522,98187
38532,98128
38542,98029
38552,97881
38562,97705
38573,97542
38584,97425
38594,97356
38604,97321
38614,97304
38624,97318
38634,97346
38644,97382
38654,97426
38664,97472
38674,97523
38684,97563
38695,97596
38704,97628
38715,97654
38725,97683
38735,97721
38745,97758
38755,97797
38765,97820
38775,97837
38785,97848
38795,97844
38806,97825
38816,97798
38827,97772
38837,97748
38847,97737
38857,97731
38867,97733
38877,97748
38887,97766
38897,97781
38907,97807
38917,97830
38927,97855
38937,97888
38948,97923
38958,97949
38968,97977
38978,98006
38988,98029
38998,98052
39008,98070
39018,98083
39029,98094
39039,98110
39049,98120
39059,98142
39070,98160
39080,98172
39090,98189
39100,98197
39110,98202
39120,98201
39130,98194
39140,98162
39150,98099
39160,97983
39170,97823
39180,97647
39191,97505
39201,97404
39211,97349
39221,97322
39231,97326
39241,97347
39252,97384
39262,97427
39272,97479
39282,97536
39292,97585
39302,97619
39313,97657
39323,97687
39333,97715
39343,97743
39353,97781
39363,97811
39373,97838
39383,97866
39393,97880
39403,97887
39413,97886
39423,97881
39433,97869
39444,97854
39454,97839
39464,97822
39475,97820
39485,97818
39495,97828
39505,97840
39515,97854
39525,97885
39535,97911
39545,97939
39555,97976
39566,98002
39576,98035
39586,98064
39596,98092
39606,98111
39616,98130
39626,98150
39636,98166
39646,98179
39656,98190
39667,98200
39677,98216
39688,98225
39698,98239
39708,98248
39718,98255
39728,98261
39738,98255
39748,98234
39758,98177
39768,98083
39778,97933
39789,97751
39799,97585
39809,97465
39819,97384
39829,97345
39839,97327
39849,97334
39859,97361
39869,97399
39879,97444
39889,97496
39899,97546
39911,97587
39921,97619
39931,97652
39941,97668
39951,97688
39961,97709
39971,97738
39981,97771
39991,97801
40001,97829
40011,97850
40021,97867
40032,97864
40042,97864
40052,97859
40062,97853
40072,97842
40082,97836
40092,97844
40102,97848
40112,97859
40122,97869
40133,97885
40143,97908
40154,97936
40164,97958
40174,97986
40184,98010
40194,98037
40204,98059
40214,98084
40224,98105
40234,98124
40244,98148
40254,98166
40264,98186
40274,98202
40285,98217
40295,98226
40305,98238
40315,98252
40325,98263
40335,98266
40346,98270
40356,98263
40366,98242
40376,98176
40386,98071
40396,97916
40407,97729
40417,97574
40427,97469
40437,97405
40447,97374
40457,97369
40467,97379
40477,97411
40487,97452
40497,97505
40507,97559
40517,97598
40527,97641
40538,97677
40548,97705
40558,97729
40569,97756
40579,97786
40589,97816
40599,97849
40609,97875
40619,97901
40629,97920
40639,97927
40649,97927
40660,97925
40670,97914
40680,97906
40690,97903
40700,97903
40710,97907
40720,97913
40730,97924
40740,97940
40750,97963
40760,97985
40770,98007
40780,98033
40791,98052
40802,98080
40812,98104
40822,98125
40832,98145
40842,98164
40852,98179
40862,98192
40872,98209
40882,98221
40892,98235
40902,98253
40913,98264
40923,98272
40933,98281
40943,98289
40953,98295
40963,98293
40973,98282
40983,98253
40993,98189
41004,98090
41014,97936
41024,97757
41034,97609
41045,97502
41055,97435
41065,97408
41075,97398
41085,97412
41095,97430
41105,97470
41115,97504
41125,97545
41135,97582
41145,97623
41155,97656
41166,97684
41176,97712
41186,97737
41196,97768
41206,97804
41216,97838
41227,97864
41237,97887
41247,97906
41257,97914
41267,97917
41277,97913
41288,97898
41298,97890
41308,97882
41318,97874
41328,97878
41338,97884
41348,97896
41358,97916
41368,97934
41378,97952
41388,97978
41398,98006
41409,98028
41419,98062
41429,98080
41439,98102
41450,98124
41460,98141
41470,98162
41480,98176
41490,98188
41500,98195
41510,98214
41520,98224
41531,98237
41541,98246
41551,98258
41561,98263
41571,98267
41581,98271
41591,98263
41601,98245
41611,98194
41621,98102
41631,97964
41641,97792
41651,97632
41662,97517
41673,97439
41683,97402
41693,97386
41703,97397
41713,97423
41723,97458
41733,97499
41743,97542
41753,97581
41763,97619
41773,97651
41784,97683
41794,97713
41804,97741
41814,97775
41824,97808
41834,97846
41844,97874
41854,97898
41864,97913
41874,97934
41884,97936
41895,97926
41906,97918
41916,97903
41926,97895
41936,97888
41946,97881
41956,97888
41966,97896
41976,97911
41986,97929
41996,97944
42006,97969
42016,97995
42027,98020
42037,98040
42047,98064
42057,98085
42067,98112
42077,98120
42087,98140
42097,98153
42107,98172
42118,98188
42128,98196
42138,98205
42149,98217
42159,98229
42169,98235
42179,98243
42189,98248
42199,98249
42209,98236
42219,98198
42229,98124
42239,97999
42249,97826
42259,97651
42270,97511
42280,97416
42290,97354
42300,97323
42310,97318
42320,97329
42330,97348
42341,97372
42351,97403
42361,97432
42371,97466
42381,97486
42392,97501
42402,97516
42412,97528
42422,97546
42432,97568
42442,97597
42452,97626
42462,97655
42472,97671
42482,97683
42492,97681
42502,97674
42512,97652
42523,97632
42533,97610
42543,97596
42554,97584
42564,97586
42574,97592
42584,97598
42594,97611
42604,97626
42614,97645
42624,97661
42635,97691
42645,97720
42655,97748
42665,97782
42675,97811
42685,97843
42695,97873
42705,97898
42715,97920
42725,97945
42735,97966
42745,97991
42756,98012
42766,98034
42777,98051
42787,98064
42797,98071
42807,98074
42817,98062
42827,98009
42837,97901
42847,97744
42857,97580
42867,97441
42877,97339
42888,97266
42898,97226
42908,97213
42918,97218
42928,97233
42938,97252
42948,97277
42958,97306
42968,97331
42978,97346
42989,97365
43000,97382
43010,97393
43020,97405
43030,97420
43040,97442
43050,97468
43060,97500
43070,97526
43080,97539
43090,97547
43100,97545
43110,97541
43121,97529
43131,97514
43141,97498
43151,97490
43161,97486
43171,97484
43181,97495
43191,97508
43201,97526
43211,97550
43223,97574
43233,97596
43243,97624
43253,97642
43263,97670
43273,97701
43283,97733
43293,97768
43303,97801
43313,97830
43323,97857
43333,97883
43343,97909
43354,97922
43364,97948
43374,97965
43384,97986
43394,98001
43404,98014
43414,98025
43424,98027
43434,97999
43445,97933
43455,97805
43466,97639
43476,97475
43486,97346
43496,97248
43506,97189
43516,97164
43526,97154
43536,97165
43546,97173
43556,97191
43566,97214
43576,97237
43586,97259
43597,97275
43607,97288
43617,97293
43627,97304
43637,97311
43647,97327
43657,97345
43668,97370
43678,97392
43688,97409
43698,97422
43708,97425
43718,97419
43729,97411
43739,97402
43749,97389
43759,97382
43769,97379
43779,97381
43789,97389
43799,97402
43809,97422
43819,97444
43829,97469
43839,97498
43849,97522
43860,97553
43870,97581
43881,97612
43891,97653
43901,97676
43911,97708
43921,97746
43931,97778
43941,97811
43951,97842
43961,97876
43971,97898
43982,97921
43992,97942
44002,97966
44012,97982
44022,98001
44032,98020
44042,98034
44052,98033
44062,98006
44072,97932
44082,97800
44092,97627
44103,97464
44114,97331
44124,97238
44134,97178
44144,97150
44154,97145
44164,97157
44174,97176
44184,97206
44194,97238
44204,97269
44214,97303
44224,97328
44235,97346
44245,97364
44255,97387
44265,97411
44275,97440
44285,97471
44295,97496
44305,97523
44315,97546
44326,97572
44336,97584
44346,97598
44357,97606
44367,97604
44377,97597
44387,97594
44397,97586
44407,97581
44417,97587
44427,97605
44437,97626
44447,97647
44457,97678
44467,97705
44478,97736
44488,97755
44498,97782
44508,97809
44518,97841
44528,97875
44538,97901
44549,97934
44559,97958
44569,97983
44579,98001
44589,98014
44600,98035
44610,98053
44620,98068
44630,98087
44640,98095
44650,98104
44660,98107
44670,98109
44680,98103
44690,98079
44700,98011
44710,97904
44720,97739
44731,97564
44741,97425
44751,97321
44761,97249
44772,97209
44782,97195
44792,97206
44802,97230
44812,97265
44822,97300
44832,97343
44842,97388
44853,97430
44863,97458
44873,97484
44883,97508
44893,97531
44903,97564
44913,97598
44923,97639
44933,97670
44943,97698
44953,97718
44963,97728
44974,97728
44985,97721
44995,97714
45005,97703
45015,97696
45025,97701
45035,97711
45045,97728
45055,97751
45065,97779
45075,97819
45085,97856
45096,97893
45106,97930
45116,97969
45126,97994
45136,98024
45146,98051
45156,98073
45166,98094
45176,98113
45186,98135
45196,98159
45207,98174
45218,98192
45228,98208
45238,98222
45248,98232
45258,98242
45268,98247
45278,98250
45288,98256
45298,98256
45308,98246
45318,98221
45328,98158
45338,98055
45349,97906
45359,97737
45369,97592
45379,97481
45389,97418
45399,97391
45409,97387
45419,97413
45430,97451
45440,97498
45450,97558
45461,97611
45470,97664
45481,97708
45491,97739
45501,97768
45511,97791
45521,97820
45531,97858
45541,97899
45551,97938
45561,97973
45571,97995
45581,98009
45591,98017
45602,98013
45612,98005
45622,97984
45632,97966
45642,97946
45653,97931
45663,97926
45673,97931
45683,97944
45693,97965
45703,97981
45713,98006
45724,98032
45734,98061
45744,98088
45754,98115
45764,98145
45774,98165
45784,98184
45794,98209
45804,98224
45814,98243
45824,98259
45834,98269
45844,98285
45855,98297
45865,98308
45876,98320
45886,98328
45896,98338
45906,98343
45916,98344
45926,98325
45936,98291
45946,98226
45956,98107
45967,97949
45977,97767
45987,97612
45997,97518
46007,97458
46017,97433
46027,97438
46037,97462
46047,97500
46057,97543
46067,97597
46077,97643
46088,97693
46099,97728
46109,97757
46119,97785
46129,97807
46139,97827
46149,97859
46159,97888
46169,97918
46179,97954
46189,97972
46199,97985
46209,97986
46220,97985
46230,97972
46240,97953
46250,97933
46260,97919
46270,97908
46280,97893
46290,97882
46301,97875
46311,97870
46321,97864
46332,97864
46342,97868
46352,97874
46362,97888
46372,97907
46382,97932
46392,97968
46402,97996
46412,98025
46422,98051
46432,98083
46442,98106
46453,98131
46463,98150
46473,98165
46483,98182
46493,98202
46503,98219
46513,98237
46524,98240
46534,98250
46544,98249
46554,98237
46564,98203
46574,98118
46584,97989
46595,97810
46605,97647
46615,97522
46625,97435
46635,97387
46645,97367
46655,97367
46665,97389
46675,97416
46685,97461
46695,97504
46706,97551
46716,97588
46726,97627
46736,97662
46747,97683
46757,97705
46767,97729
46777,97756
46787,97793
46797,97825
46807,97855
46817,97883
46828,97907
46838,97930
46848,97936
46858,97952
46868,97953
46878,97961
46888,97966
46898,97977
46908,97989
46918,98003
46928,98022
46938,98047
46949,98068
46959,98095
46970,98117
46980,98136
46990,98157
47000,98178
47010,98198
47020,98212
47030,98230
47040,98249
47050,98276
47060,98295
47070,98310
47081,98334
47091,98350
47101,98366
47111,98374
47121,98392
47131,98401
47141,98410
47151,98414
47161,98427
47171,98432
47181,98435
47193,98422
47203,98393
47213,98333
47223,98254
47233,98127
47243,97971
47253,97828
47263,97711
47273,97651
47283,97617
47293,97621
47303,97639
47313,97665
47324,97707
47334,97743
47344,97778
47354,97813
47364,97841
47374,97880
47384,97906
47394,97927
47405,97953
47415,97982
47425,98013
47435,98046
47446,98074
47456,98089
47466,98108
47476,98116
47486,98125
47496,98127
47506,98126
47516,98133
47526,98133
47536,98140
47546,98151
47556,98166
47566,98186
47577,98208
47587,98229
47597,98246
47607,98269
47618,98288
47628,98303
47638,98324
47648,98335
47658,98352
47668,98365
47678,98377
47688,98393
47698,98408
47709,98427
47719,98442
47729,98461
47739,98472
47749,98485
47759,98493
47769,98504
47779,98515
47789,98522
47799,98526
47809,98529
47820,98534
47830,98526
47841,98505
47851,98459
47861,98392
47871,98294
47881,98174
47891,98040
47901,97914
47911,97830
47921,97785
47931,97784
47942,97811
47952,97850
47962,97903
47972,97959
47982,98011
47992,98059
48002,98100
48012,98138
48022,98166
48032,98188
48042,98210
48052,98224
48064,98248
48074,98269
48084,98284
48094,98296
48104,98300
48114,98304
48124,98306
48134,98305
48144,98300
48154,98293
48164,98290
48174,98290
48184,98296
48194,98304
48205,98314
48215,98326
48225,98338
48235,98356
48245,98378
48255,98394
48265,98410
48276,98427
48286,98449
48296,98457
48306,98474
48316,98487
48327,98497
48337,98513
48347,98523
48357,98533
48367,98543
48377,98557
48387,98568
48397,98576
48407,98584
48417,98589
48427,98592
48437,98595
48448,98594
48458,98587
48468,98557
48478,98493
48488,98415
48499,98306
48509,98182
48519,98050
48529,97944
48539,97890
48549,97872
48559,97885
48569,97924
48579,97973
48590,98032
48600,98089
48610,98133
48620,98176
48630,98206
48640,98228
48650,98244
48660,98257
48670,98275
48680,98300
48690,98318
48700,98336
48711,98352
48722,98362
48732,98363
48742,98365
48752,98361
48762,98354
48772,98352
48782,98347
48792,98344
48802,98346
48812,98352
48822,98358
48832,98363
48842,98377
48852,98391
48863,98407
48873,98419
48883,98436
48893,98451
48903,98468
48913,98486
48923,98501
48934,98516
48944,98530
48954,98543
48964,98555
48974,98569
48985,98579
48995,98590
49005,98595
49015,98600
49025,98611
49035,98617
49045,98620
49055,98613
49065,98599
49075,98559
49085,98498
49096,98412
49106,98306
49116,98180
49126,98056
49136,97964
49146,97913
49157,97892
49167,97907
49177,97933
49187,97976
49197,98028
49207,98078
49217,98124
49227,98163
49238,98189
49248,98219
49258,98232
49268,98254
49278,98267
49288,98292
49298,98315
49308,98335
49318,98348
49328,98362
49338,98366
49348,98369
49358,98367
49370,98363
49380,98363
49390,98356
49400,98357
49410,98362
49420,98362
49430,98368
49440,98379
49450,98388
49460,98403
49470,98414
49480,98434
49491,98450
49501,98465
49511,98484
49521,98500
49531,98519
49541,98535
49551,98553
49561,98568
49571,98583
49581,98599
49592,98609
49602,98617
49613,98628
49623,98634
49633,98636
49643,98644
49653,98644
49663,98642
49673,98629
49683,98595
49693,98532
49703,98445
49713,98341
49723,98210
49733,98087
49744,97988
49754,97920
49764,97891
49774,97897
49784,97914
49794,97961
49804,98009
49815,98062
49825,98116
49835,98162
49845,98196
49855,98222
49866,98245
49876,98260
49886,98279
49896,98303
49906,98321
49916,98341
49926,98359
49936,98372
49946,98376
49956,98382
49966,98384
49976,98382
49987,98375
49997,98374
50007,98372
50017,98370
50027,98374
50038,98383
50048,98388
50058,98401
50068,98416
50078,98427
50089,98446
50099,98458
50109,98479
50119,98498
50129,98517
50139,98534
50149,98548
50159,98563
50169,98573
50179,98590
50189,98598
50199,98604
50209,98614
50220,98618
50230,98632
50240,98641
50251,98648
50261,98649
50271,98655
50281,98652
50291,98642
50301,98608
50311,98543
50321,98453
50331,98354
50341,98233
50352,98109
50362,98013
50372,97956
50382,97932
50392,97944
50402,97971
50412,98022
50422,98065
50432,98120
50442,98169
50452,98207
50462,98238
50474,98253
50484,98267
50494,98289
50504,98300
50514,98321
50524,98341
50534,98361
50544,98377
50554,98386
50564,98395
50574,98397
50584,98394
50595,98392
50605,98388
50615,98389
50625,98384
50635,98388
50645,98389
50655,98395
50665,98403
50675,98413
50686,98426
50696,98438
50706,98454
50716,98468
50727,98477
50737,98494
50747,98513
50757,98528
50767,98544
50777,98561
50787,98576
50797,98590
50807,98601
50817,98618
50827,98626
50838,98633
50848,98646
50858,98651
50868,98660
50878,98666
50888,98665
50898,98666
50909,98657
50919,98628
50929,98568
50939,98486
50949,98390
50959,98278
50970,98174
50980,98082
50990,98031
51000,98013
51010,98022
51020,98049
51030,98091
51040,98136
51050,98183
51060,98221
51070,98262
51081,98287
51091,98313
51101,98332
51111,98346
51121,98367
51132,98384
51142,98398
51152,98414
51162,98423
51172,98435
51182,98437
51192,98433
51202,98425
51213,98421
51223,98422
51233,98411
51243,98406
51253,98410
51263,98418
51273,98422
51283,98428
51293,98437
51303,98449
51313,98456
51323,98468
51334,98483
51344,98496
51355,98511
51365,98532
51375,98547
51385,98565
51395,98574
51405,98584
51415,98598
51425,98612
51435,98620
51445,98632
51455,98642
51465,98652
51476,98661
51486,98672
51496,98681
51506,98675
51516,98676
51526,98660
51536,98617
51546,98548
51556,98454
51567,98343
51577,98216
51587,98092
51597,97998
51608,97945
51618,97936
51628,97947
51638,97978
51648,98029
51658,98084
51668,98132
51678,98180
51688,98217
51698,98246
51709,98267
51719,98281
51729,98298
51739,98310
51749,98334
51759,98349
51769,98369
51779,98381
51790,98384
51800,98384
51810,98381
51820,98371
51830,98361
51841,98352
51851,98350
51861,98344
51871,98358
51881,98360
51891,98367
51901,98379
51911,98392
51921,98408
51931,98420
51941,98435
51951,98454
51962,98471
51972,98485
51982,98502
51992,98516
52002,98531
52013,98543
52023,98557
52033,98568
52043,98578
52053,98588
52063,98596
52073,98605
52083,98612
52094,98621
52104,98624
52114,98623
52124,98618
52134,98594
52144,98538
52154,98461
52164,98363
52174,98236
52184,98103
52194,97994
52205,97920
52215,97885
52226,97878
52236,97905
52246,97943
52256,97995
52266,98052
52276,98099
52286,98141
52296,98176
52306,98204
52317,98217
52327,98236
52337,98250
52347,98268
52357,98290
52367,98314
52377,98330
52387,98341
52397,98345
52407,98349
52417,98345
52427,98341
52438,98338
52449,98333
52459,98329
52469,98327
52479,98335
52489,98338
52499,98345
52509,98362
52519,98373
52529,98395
52539,98412
52549,98427
52560,98443
52570,98462
52580,98476
52590,98489
52600,98503
52610,98519
52620,98531
52630,98541
52640,98558
52650,98563
52660,98573
52671,98584
52681,98593
52692,98601
52702,98609
52712,98609
52722,98612
52732,98604
52742,98580
52752,98531
52762,98454
52772,98342
52782,98196
52792,98038
52802,97911
52813,97832
52823,97787
52833,97776
52843,97795
52853,97822
52863,97865
52873,97910
52884,97959
52894,98003
52904,98039
52914,98065
52925,98092
52935,98101
52945,98120
52955,98143
52965,98174
52975,98192
52985,98221
52995,98239
53005,98254
53015,98264
53025,98267
53035,98272
53046,98272
53056,98269
53066,98269
53076,98272
53086,98278
53096,98280
53107,98290
53117,98308
53127,98326
53137,98337
53147,98359
53157,98374
53168,98392
53178,98412
53188,98433
53198,98453
53208,98466
53218,98485
53228,98500
53238,98518
53248,98531
53258,98547
53268,98551
53278,98566
53289,98577
53299,98587
53309,98589
53320,98597
53330,98600
53340,98607
53350,98604
53360,98577
53370,98530
53380,98451
53390,98335
53400,98198
53411,98049
53421,97928
53431,97852
53441,97814
53451,97813
53461,97840
53471,97873
53481,97928
53491,97982
53501,98028
53511,98081
53521,98114
53531,98140
53543,98162
53553,98168
53563,98182
53573,98199
53583,98224
53593,98251
53603,98276
53613,98294
53623,98313
53633,98321
53643,98326
53654,98332
53664,98330
53674,98327
53684,98333
53694,98332
53704,98334
53714,98339
53724,98348
53734,98357
53744,98367
53754,98380
53765,98396
53776,98414
53786,98429
53796,98449
53806,98467
53816,98481
53826,98500
53836,98516
53846,98536
53856,98548
53866,98566
53876,98572
53886,98591
53897,98597
53907,98607
53917,98620
53927,98625
53937,98632
53947,98640
53957,98646
53967,98651
53977,98649
53988,98636
53998,98609
54008,98552
54019,98463
54029,98353
54039,98219
54049,98085
54059,97972
54069,97904
54079,97880
54089,97890
54099,97921
54109,97973
54119,98032
54130,98096
54140,98148
54150,98194
54160,98227
54170,98255
54180,98272
54190,98294
54201,98309
54211,98326
54221,98345
54231,98363
54242,98375
54252,98386
54262,98394
54272,98401
54282,98397
54292,98395
54302,98383
54312,98377
54322,98377
54332,98382
54342,98389
54352,98403
54363,98411
54373,98424
54383,98441
54393,98450
54403,98467
54413,98483
54424,98496
54434,98504
54444,98520
54454,98530
54465,98542
54475,98551
54485,98560
54495,98566
54505,98567
54515,98575
54525,98582
54535,98593
54545,98600
54555,98605
54565,98615
54575,98624
54585,98629
54596,98628
54606,98626
54616,98625
54626,98607
54636,98571
54647,98511
54657,98413
54667,98287
54677,98141
54687,97998
54697,97895
54708,97824
54718,97794
54728,97794
54738,97809
54748,97824
54758,97853
54768,97886
54778,97918
54788,97953
54798,97980
54808,97994
54819,98012
54829,98028
54839,98052
54849,98078
54859,98108
54870,98133
54880,98152
54890,98167
54900,98163
54910,98164
54920,98158
54931,98160
54941,98159
54951,98157
54961,98159
54971,98163
54981,98169
54991,98180
55001,98196
55011,98214
55021,98246
55031,98269
55042,98292
55052,98316
55062,98345
55072,98368
55082,98387
55093,98413
55103,98428
55113,98453
55123,98467
55133,98488
55143,98503
55154,98518
55164,98530
55174,98547
55184,98554
55194,98564
55204,98576
55214,98589
55224,98586
55234,98589
55244,98563
55254,98515
55265,98432
55275,98319
55285,98171
55295,98028
55306,97906
55316,97829
55326,97788
55336,97779
55346,97803
55356,97843
55366,97901
55377,97961
55387,98024
55397,98082
55407,98128
55417,98162
55427,98193
55437,98212
55447,98238
55457,98263
55467,98295
55477,98317
55487,98343
55497,98359
55508,98371
55518,98378
55529,98376
55539,98376
55549,98375
55559,98377
55569,98382
55579,98390
55589,98414
55599,98442
55609,98460
55620,98488
55630,98506
55640,98531
55650,98551
55660,98574
55670,98593
55680,98613
55690,98628
55700,98648
55710,98662
55721,98674
55731,98694
55741,98704
55752,98713
55762,98726
55772,98732
55782,98741
55792,98758
55802,98764
55812,98771
55822,98776
55832,98782
55843,98790
55853,98786
55863,98775
55873,98736
55883,98671
55893,98580
55903,98478
55913,98371
55923,98275
55933,98198
55943,98166
55953,98156
55964,98183
55975,98216
55985,98270
55995,98320
56005,98366
56015,98399
56025,98428
56035,98449
56045,98464
56055,98474
56065,98488
56075,98503
56085,98519
56096,98537
56106,98557
56116,98578
56126,98591
56136,98598
56146,98605
56156,98606
56166,98601
56176,98599
56187,98598
56197,98601
56207,98603
56217,98610
56228,98617
56238,98626
56248,98636
56258,98655
56268,98665
56278,98677
56288,98690
56298,98700
56308,98720
56318,98731
56329,98746
56339,98761
56349,98774
56359,98783
56369,98795
56379,98807
56389,98813
56399,98824
56410,98827
56420,98836
56430,98843
56441,98854
56451,98856
56461,98861
56471,98862
56481,98856
56491,98844
56501,98802
56511,98731
56521,98653
56531,98562
56541,98466
56551,98381
56562,98325
56572,98295
56582,98297
56592,98325
56602,98362
56612,98406
56623,98444
56633,98474
56643,98508
56653,98535
56663,98545
56673,98563
56684,98578
56694,98591
56704,98598
56714,98617
56724,98629
56734,98646
56744,98656
56754,98670
56764,98676
56774,98678
56784,98673
56795,98671
56805,98664
56815,98663
56825,98658
56835,98660
56846,98665
56856,98670
56866,98678
56876,98685
56886,98699
56896,98709
56906,98722
56916,98733
56927,98749
56937,98759
56947,98779
56957,98785
56967,98793
56977,98806
56987,98818
56997,98824
57007,98833
57017,98842
57027,98850
57037,98859
57048,98865
57058,98874
57068,98877
57079,98882
57089,98885
57099,98890
57109,98887
57119,98872
57129,98843
57139,98788
57149,98702
57160,98601
57170,98495
57180,98386
57190,98298
57200,98241
57210,98223
57220,98230
57230,98258
57240,98300
57250,98346
57260,98391
57270,98425
57281,98454
57292,98476
57302,98497
57312,98513
57322,98530
57332,98545
57342,98561
57352,98582
57362,98597
57372,98614
57382,98624
57392,98625
57402,98625
57413,98623
57423,98623
57433,98613
57443,98613
57453,98607
57463,98613
57473,98620
57483,98625
57493,98631
57503,98640
57514,98650
57525,98667
57535,98678
57545,98692
57555,98714
57565,98729
57575,98741
57585,98752
57595,98768
57605,98776
57615,98783
57625,98787
57635,98796
57645,98798
57656,98804
57666,98804
57676,98811
57686,98817
57696,98815
57706,98824
57716,98831
57727,98825
57737,98828
57747,98814
57757,98783
57767,98715
57778,98627
57788,98531
57798,98411
57808,98304
57818,98217
57828,98160
57838,98147
57848,98156
57858,98199
57868,98245
57878,98301
57888,98350
57899,98398
57909,98425
57919,98457
57929,98482
57939,98501
57950,98515
57960,98537
57970,98553
57980,98576
57990,98591
58000,98599
58010,98604
58020,98605
58031,98596
58041,98596
58051,98586
58061,98580
58071,98574
58081,98567
58091,98572
58101,98578
58111,98587
58121,98594
58131,98605
58141,98621
58152,98635
58162,98653
58173,98663
58183,98683
58193,98690
58203,98705
58213,98719
58223,98728
58233,98734
58243,98743
58253,98750
58263,98754
58273,98762
58284,98765
58294,98770
58304,98783
58314,98789
58324,98789
58334,98793
58344,98788
58354,98778
58364,98749
58374,98690
58384,98598
58396,98492
58406,98353
58416,98207
58426,98083
58436,98009
58446,97968
58456,97969
58466,97999
58476,98044
58486,98095
58496,98161
58506,98219
58516,98266
58527,98309
58537,98343
58547,98368
58557,98385
58567,98404
58577,98420
58587,98443
58597,98466
58607,98483
58618,98491
58628,98496
58638,98495
58649,98498
58659,98492
58669,98490
58679,98485
58689,98481
58699,98482
58709,98487
58719,98489
58729,98505
58739,98521
58749,98537
58759,98547
58770,98570
58780,98588
58790,98606
58800,98629
58810,98640
58820,98659
58830,98675
58841,98694
58851,98701
58861,98722
58871,98731
58881,98741
58891,98754
58902,98758
58912,98763
58922,98777
58932,98779
58942,98782
58952,98785
58962,98779
58972,98758
58982,98703
58992,98625
59002,98528
59012,98406
59022,98284
59033,98176
59043,98095
59053,98060
59064,98063
59074,98092
59084,98145
59094,98202
59104,98259
59114,98305
59124,98346
59134,98380
59144,98405
59155,98421
59165,98434
59175,98457
59185,98472
59195,98494
59205,98511
59215,98521
59225,98530
59235,98544
59245,98541
59255,98538
59265,98537
59275,98533
59287,98528
59297,98525
59307,98522
59317,98525
59327,98530
59337,98543
59347,98549
59357,98564
59367,98578
59377,98591
59387,98609
59397,98627
59407,98645
59417,98664
59428,98681
59438,98700
59448,98711
59458,98725
59468,98735
59478,98749
59488,98754
59498,98763
59509,98773
59519,98780
59529,98784
59539,98788
59550,98795
59560,98801
59570,98797
59580,98785
59590,98759
59600,98695
59610,98603
59620,98497
59630,98372
59640,98245
59650,98135
59660,98069
59671,98042
59681,98053
59691,98076
59701,98125
59711,98180
59722,98230
59732,98276
59742,98311
59752,98342
59762,98370
59772,98388
59782,98403
59793,98419
59803,98437
59813,98458
59823,98482
59833,98500
59843,98512
59853,98513
59863,98520
59873,98522
59883,98517
59893,98513
59903,98509
59913,98514
59923,98510
59934,98513
59945,98514
59955,98526
59965,98535
59975,98545
59985,98562
59995,98573
END
